0.057755,0.307930,0.052381,0.300586,0.000000
0.057695,0.308307,0.058828,0.314286,0.000000
0.057800,0.308554,0.054799,0.313480,0.000000
0.058072,0.308811,0.060440,0.308645,0.000000
0.057831,0.308756,0.041099,0.311062,0.000000
0.058017,0.308917,0.062857,0.307033,0.000000
0.057952,0.308962,0.060440,0.308645,0.000000
0.057967,0.308660,0.053993,0.296557,0.000000
0.057846,0.308489,0.057216,0.298169,0.000000
0.057841,0.308307,0.058828,0.292527,0.000000
0.057725,0.308277,0.057216,0.296557,0.000000
0.057408,0.307572,0.051575,0.305421,0.000000
0.057302,0.307481,0.053993,0.300586,0.000000
0.057236,0.307169,0.044322,0.296557,0.000000
0.057252,0.306927,0.049963,0.294139,0.000000
0.056798,0.306383,0.045934,0.291722,0.000000
0.056697,0.306046,0.055604,0.294139,0.000000
0.056496,0.305522,0.047546,0.296557,0.000000
0.056269,0.304600,0.051575,0.280440,0.000000
0.055912,0.304011,0.049158,0.287692,0.000000
0.055725,0.303245,0.051575,0.292527,0.000000
0.055549,0.302636,0.053187,0.285275,0.000000
0.055096,0.301699,0.045934,0.274799,0.000000
0.054768,0.301080,0.050769,0.282857,0.000000
0.054476,0.300274,0.041905,0.282857,0.000000
0.054255,0.299312,0.048352,0.281245,0.000000
0.053716,0.298466,0.048352,0.285275,0.000000
0.053419,0.297700,0.051575,0.279634,0.000000
0.053061,0.296930,0.045934,0.282857,0.000000
0.052457,0.295726,0.038681,0.272381,0.000000
0.052064,0.294920,0.051575,0.289304,0.000000
0.051777,0.293958,0.049158,0.273187,0.000000
0.051590,0.293147,0.044322,0.282857,0.000000
0.051087,0.292130,0.044322,0.283663,0.000000
0.050895,0.291379,0.051575,0.283663,0.000000
0.050442,0.290528,0.042711,0.278828,0.000000
0.050382,0.289546,0.049158,0.273187,0.000000
0.049958,0.288750,0.050769,0.274799,0.000000
0.049787,0.288025,0.051575,0.281245,0.000000
0.049596,0.287476,0.046740,0.276410,0.000000
0.049097,0.286589,0.045934,0.286081,0.000000
0.048971,0.286247,0.046740,0.288498,0.000000
0.048835,0.285768,0.049963,0.279634,0.000000
0.048760,0.285512,0.048352,0.276410,0.000000
0.048508,0.284963,0.036264,0.284469,0.000000
0.048392,0.284691,0.051575,0.284469,0.000000
0.048317,0.284393,0.046740,0.281245,0.000000
0.048311,0.283990,0.046740,0.275604,0.000000
0.048281,0.283875,0.050769,0.282857,0.000000
0.048296,0.283784,0.052381,0.285275,0.000000
0.048306,0.283880,0.046740,0.283663,0.000000
0.048165,0.283698,0.047546,0.289304,0.000000
0.048226,0.283940,0.052381,0.290916,0.000000
0.048291,0.284006,0.049158,0.285275,0.000000
0.048453,0.284026,0.047546,0.284469,0.000000
0.048382,0.284257,0.051575,0.288498,0.000000
0.048493,0.284529,0.051575,0.293333,0.000000
0.048558,0.284937,0.049963,0.279634,0.000000
0.048427,0.284837,0.049963,0.285275,0.000000
0.048528,0.285169,0.052381,0.295751,0.000000
0.048629,0.285436,0.051575,0.288498,0.000000
0.048951,0.285955,0.048352,0.289304,0.000000
0.048855,0.286126,0.053187,0.291722,0.000000
0.049057,0.286610,0.057216,0.294139,0.000000
0.049173,0.287007,0.045934,0.294139,0.000000
0.049470,0.287113,0.051575,0.281245,0.000000
0.049480,0.287451,0.056410,0.291722,0.000000
0.049692,0.287813,0.055604,0.295751,0.000000
0.049913,0.288433,0.051575,0.286081,0.000000
0.049848,0.288815,0.049158,0.270769,0.000000
0.050034,0.289385,0.052381,0.296557,0.000000
0.049979,0.289878,0.043516,0.292527,0.000000
0.050336,0.290573,0.053187,0.295751,0.000000
0.050291,0.290835,0.057216,0.298974,0.000000
0.050492,0.291314,0.055604,0.299780,0.000000
0.050704,0.291948,0.051575,0.296557,0.000000
0.050830,0.292306,0.051575,0.294945,0.000000
0.050905,0.292739,0.057216,0.301392,0.000000
0.051102,0.293142,0.060440,0.297363,0.000000
0.051203,0.293676,0.056410,0.296557,0.000000
0.051056,0.293867,0.051575,0.284469,0.000000
0.051243,0.294341,0.058828,0.297363,0.000000
0.051515,0.294708,0.045934,0.300586,0.000000
0.051706,0.295076,0.052381,0.296557,0.000000
0.051686,0.295272,0.055604,0.296557,0.000000
0.051867,0.295701,0.057216,0.298169,0.000000
0.051943,0.296154,0.051575,0.295751,0.000000
0.051882,0.296164,0.051575,0.294139,0.000000
0.052104,0.296456,0.057216,0.300586,0.000000
0.052200,0.296617,0.053993,0.285275,0.000000
0.052532,0.297035,0.050769,0.296557,0.000000
0.052643,0.297096,0.044322,0.299780,0.000000
0.052865,0.297398,0.053993,0.299780,0.000000
0.052930,0.297579,0.049158,0.296557,0.000000
0.053086,0.297574,0.052381,0.296557,0.000000
0.053041,0.297705,0.049158,0.292527,0.000000
0.053162,0.297856,0.055604,0.300586,0.000000
0.053278,0.298214,0.052381,0.294139,0.000000
0.053202,0.298274,0.049158,0.296557,0.000000
0.053338,0.298516,0.057216,0.301392,0.000000
0.053333,0.298551,0.052381,0.297363,0.000000
0.053504,0.298576,0.052381,0.297363,0.000000
0.053353,0.298491,0.047546,0.298974,0.000000
0.053580,0.298642,0.053993,0.296557,0.000000
0.053635,0.298587,0.051575,0.297363,0.000000
0.053670,0.298506,0.052381,0.292527,0.000000
0.053655,0.298561,0.056410,0.298974,0.000000
0.053776,0.298325,0.056410,0.295751,0.000000
0.053822,0.298385,0.054799,0.296557,0.000000
0.053665,0.298365,0.051575,0.288498,0.000000
0.053776,0.298486,0.057216,0.306227,0.000000
0.053771,0.298531,0.062051,0.296557,0.000000
0.053953,0.298556,0.051575,0.298169,0.000000
0.053812,0.298415,0.051575,0.296557,0.000000
0.053832,0.298526,0.058828,0.299780,0.000000
0.053852,0.298607,0.052381,0.297363,0.000000
0.053741,0.298491,0.051575,0.296557,0.000000
0.053877,0.298647,0.062051,0.303810,0.000000
0.053947,0.298753,0.053993,0.303810,0.000000
0.054164,0.298924,0.051575,0.296557,0.000000
0.053817,0.298753,0.049963,0.300586,0.000000
0.054073,0.298995,0.060440,0.303810,0.000000
0.054119,0.299126,0.048352,0.298974,0.000000
0.054008,0.299080,0.051575,0.296557,0.000000
0.053947,0.299151,0.051575,0.305421,0.000000
0.054094,0.299216,0.057216,0.296557,0.000000
0.054134,0.299574,0.054799,0.296557,0.000000
0.054038,0.299745,0.049963,0.299780,0.000000
0.054144,0.300027,0.053187,0.307033,0.000000
0.054159,0.300153,0.058828,0.296557,0.000000
0.054295,0.300284,0.056410,0.302198,0.000000
0.054164,0.300354,0.041905,0.297363,0.000000
0.054416,0.300677,0.058828,0.305421,0.000000
0.054537,0.300924,0.053187,0.305421,0.000000
0.054643,0.300914,0.053993,0.297363,0.000000
0.054572,0.301140,0.060440,0.303810,0.000000
0.054648,0.301357,0.059634,0.307033,0.000000
0.054869,0.301619,0.051575,0.298974,0.000000
0.054663,0.301583,0.051575,0.298974,0.000000
0.054789,0.301996,0.060440,0.307033,0.000000
0.055015,0.302218,0.058828,0.298974,0.000000
0.055202,0.302364,0.058828,0.305421,0.000000
0.055106,0.302611,0.051575,0.308645,0.000000
0.055388,0.302964,0.060440,0.304615,0.000000
0.055453,0.303286,0.058022,0.302198,0.000000
0.055433,0.303397,0.058828,0.296557,0.000000
0.055610,0.303729,0.062857,0.313480,0.000000
0.055730,0.303971,0.059634,0.309451,0.000000
0.055917,0.304374,0.053993,0.307839,0.000000
0.055584,0.304449,0.050769,0.297363,0.000000
0.055887,0.304706,0.063663,0.307033,0.000000
0.055942,0.304978,0.051575,0.305421,0.000000
0.056219,0.305205,0.057216,0.304615,0.000000
0.056179,0.305416,0.051575,0.302198,0.000000
0.056355,0.305698,0.056410,0.311062,0.000000
0.056451,0.306116,0.057216,0.302198,0.000000
0.056340,0.306222,0.051575,0.292527,0.000000
0.056446,0.306706,0.054799,0.315092,0.000000
0.056511,0.306917,0.053993,0.307839,0.000000
0.056617,0.307083,0.055604,0.307033,0.000000
0.056592,0.307209,0.057216,0.306227,0.000000
0.056823,0.307557,0.064469,0.316703,0.000000
0.056934,0.307879,0.049963,0.308645,0.000000
0.057121,0.307930,0.056410,0.301392,0.000000
0.056980,0.308096,0.061245,0.309451,0.000000
0.057126,0.308222,0.064469,0.311062,0.000000
0.057302,0.308625,0.056410,0.309451,0.000000
0.057342,0.308705,0.051575,0.317509,0.000000
0.057594,0.309098,0.060440,0.311868,0.000000
0.057629,0.309310,0.052381,0.309451,0.000000
0.057931,0.309647,0.055604,0.309451,0.000000
0.057811,0.309869,0.064469,0.311062,0.000000
0.057866,0.310186,0.060440,0.310256,0.000000
0.058042,0.310433,0.060440,0.319121,0.000000
0.058007,0.310362,0.054799,0.314286,0.000000
0.057957,0.310690,0.070110,0.315092,0.000000
0.058133,0.310821,0.060440,0.309451,0.000000
0.058470,0.311153,0.056410,0.309451,0.000000
0.058198,0.311138,0.052381,0.308645,0.000000
0.058410,0.311491,0.064469,0.314286,0.000000
0.058621,0.311662,0.058828,0.310256,0.000000
0.058959,0.311742,0.062051,0.309451,0.000000
0.058954,0.311853,0.051575,0.315092,0.000000
0.059165,0.312155,0.062857,0.310256,0.000000
0.059266,0.312453,0.057216,0.320733,0.000000
0.059120,0.312578,0.051575,0.319927,0.000000
0.059140,0.312996,0.057216,0.321538,0.000000
0.059216,0.313263,0.053993,0.309451,0.000000
0.059493,0.313576,0.061245,0.313480,0.000000
0.059322,0.313697,0.049158,0.309451,0.000000
0.059599,0.313974,0.065275,0.321538,0.000000
0.059805,0.314306,0.062051,0.316703,0.000000
0.059961,0.314351,0.058828,0.309451,0.000000
0.059961,0.314548,0.059634,0.309451,0.000000
0.060158,0.314754,0.064469,0.314286,0.000000
0.060213,0.315167,0.062857,0.311868,0.000000
0.060208,0.315208,0.058022,0.301392,0.000000
0.060309,0.315595,0.064469,0.321538,0.000000
0.060268,0.315827,0.056410,0.311868,0.000000
0.060510,0.316104,0.060440,0.315092,0.000000
0.060500,0.316290,0.063663,0.319927,0.000000
0.060636,0.316673,0.064469,0.321538,0.000000
0.060772,0.316980,0.066886,0.322344,0.000000
0.060848,0.317036,0.059634,0.315092,0.000000
0.060722,0.317308,0.063663,0.321538,0.000000
0.060843,0.317539,0.062857,0.322344,0.000000
0.061125,0.317983,0.065275,0.319927,0.000000
0.060858,0.317957,0.059634,0.313480,0.000000
0.061014,0.318270,0.066886,0.323150,0.000000
0.060958,0.318481,0.053993,0.321538,0.000000
0.061175,0.318557,0.061245,0.314286,0.000000
0.061120,0.318602,0.063663,0.309451,0.000000
0.061175,0.318783,0.064469,0.317509,0.000000
0.061205,0.318960,0.061245,0.307839,0.000000
0.060908,0.318829,0.052381,0.311868,0.000000
0.060787,0.318854,0.064469,0.314286,0.000000
0.060681,0.318804,0.055604,0.306227,0.000000
0.060757,0.318617,0.053187,0.309451,0.000000
0.060530,0.318104,0.063663,0.314286,0.000000
0.060571,0.317847,0.061245,0.308645,0.000000
0.060399,0.317464,0.053187,0.298169,0.000000
0.060329,0.316784,0.052381,0.296557,0.000000
0.060057,0.316255,0.051575,0.300586,0.000000
0.059881,0.315626,0.058828,0.296557,0.000000
0.059563,0.315087,0.050769,0.299780,0.000000
0.059115,0.314291,0.047546,0.270769,0.000000
0.058833,0.313717,0.055604,0.298169,0.000000
0.058536,0.312911,0.057216,0.294945,0.000000
0.058380,0.312276,0.049963,0.292527,0.000000
0.057911,0.311420,0.043516,0.291722,0.000000
0.057715,0.310680,0.053187,0.292527,0.000000
0.057317,0.309899,0.049963,0.294139,0.000000
0.056823,0.308796,0.049158,0.284469,0.000000
0.056496,0.307935,0.050769,0.294139,0.000000
0.056179,0.306947,0.051575,0.296557,0.000000
0.055846,0.306076,0.051575,0.288498,0.000000
0.055403,0.304913,0.046740,0.281245,0.000000
0.055040,0.304092,0.051575,0.292527,0.000000
0.054567,0.303069,0.049158,0.296557,0.000000
0.054592,0.302027,0.049158,0.284469,0.000000
0.054109,0.300994,0.043516,0.285275,0.000000
0.053842,0.300178,0.050769,0.294139,0.000000
0.053419,0.299458,0.051575,0.292527,0.000000
0.052865,0.298244,0.040293,0.278022,0.000000
0.052457,0.297529,0.052381,0.294945,0.000000
0.051998,0.296718,0.051575,0.282051,0.000000
0.051842,0.296154,0.051575,0.289304,0.000000
0.051313,0.295333,0.041099,0.284469,0.000000
0.051263,0.294804,0.053993,0.295751,0.000000
0.050996,0.294326,0.051575,0.289304,0.000000
0.050890,0.293686,0.051575,0.284469,0.000000
0.050593,0.293233,0.052381,0.287692,0.000000
0.050472,0.292920,0.051575,0.295751,0.000000
0.050371,0.292855,0.053993,0.294139,0.000000
0.050110,0.292402,0.049158,0.298974,0.000000
0.050029,0.292321,0.057216,0.296557,0.000000
0.050105,0.292381,0.053993,0.289304,0.000000
0.050180,0.292422,0.052381,0.295751,0.000000
0.050049,0.292301,0.044322,0.296557,0.000000
0.050160,0.292452,0.053993,0.299780,0.000000
0.050190,0.292588,0.047546,0.297363,0.000000
0.050246,0.292548,0.051575,0.290916,0.000000
0.050160,0.292749,0.051575,0.300586,0.000000
0.050286,0.292920,0.053993,0.300586,0.000000
0.050351,0.293308,0.053993,0.296557,0.000000
0.050084,0.293444,0.050769,0.298974,0.000000
0.050256,0.293928,0.054799,0.304615,0.000000
0.050361,0.294295,0.051575,0.294945,0.000000
0.050573,0.294724,0.051575,0.298974,0.000000
0.050638,0.295066,0.056410,0.300586,0.000000
0.050830,0.295645,0.056410,0.303810,0.000000
0.050885,0.296245,0.051575,0.299780,0.000000
0.050845,0.296738,0.050769,0.286081,0.000000
0.050920,0.297232,0.057216,0.300586,0.000000
0.051142,0.297680,0.053187,0.299780,0.000000
0.051485,0.298380,0.051575,0.306227,0.000000
0.051333,0.298728,0.058828,0.298974,0.000000
0.051701,0.299342,0.058828,0.305421,0.000000
0.051862,0.299800,0.051575,0.300586,0.000000
0.052230,0.300072,0.056410,0.296557,0.000000
0.052245,0.300546,0.055604,0.312674,0.000000
0.052507,0.300929,0.057216,0.309451,0.000000
0.052547,0.301599,0.053993,0.302198,0.000000
0.052572,0.302047,0.051575,0.298974,0.000000
0.052779,0.302561,0.060440,0.310256,0.000000
0.052915,0.302938,0.058828,0.301392,0.000000
0.053152,0.303583,0.055604,0.304615,0.000000
0.053257,0.303961,0.058022,0.309451,0.000000
0.053494,0.304409,0.062051,0.310256,0.000000
0.053746,0.304872,0.058022,0.311062,0.000000
0.053837,0.305185,0.051575,0.306227,0.000000
0.054033,0.305668,0.058828,0.308645,0.000000
0.054255,0.306091,0.063663,0.311062,0.000000
0.054446,0.306580,0.061245,0.307033,0.000000
0.054441,0.306847,0.051575,0.300586,0.000000
0.054673,0.307260,0.060440,0.309451,0.000000
0.054753,0.307557,0.059634,0.301392,0.000000
0.055086,0.307809,0.057216,0.308645,0.000000
0.054985,0.307889,0.053993,0.307033,0.000000
0.055207,0.308202,0.059634,0.311062,0.000000
0.055338,0.308484,0.056410,0.311868,0.000000
0.055207,0.308418,0.051575,0.303810,0.000000
0.055312,0.308625,0.053187,0.311062,0.000000
0.055438,0.308584,0.057216,0.297363,0.000000
0.055690,0.308650,0.059634,0.309451,0.000000
0.055448,0.308599,0.046740,0.298974,0.000000
0.055615,0.308786,0.057216,0.310256,0.000000
0.055559,0.308897,0.055604,0.298974,0.000000
0.055801,0.308675,0.056410,0.300586,0.000000
0.055756,0.308695,0.058022,0.298169,0.000000
0.055887,0.308781,0.060440,0.307033,0.000000
0.055897,0.309017,0.060440,0.308645,0.000000
0.055771,0.308836,0.049963,0.300586,0.000000
0.055786,0.308997,0.063663,0.309451,0.000000
0.055912,0.309073,0.049158,0.307033,0.000000
0.056028,0.309017,0.052381,0.305421,0.000000
0.055877,0.308932,0.051575,0.308645,0.000000
0.055997,0.308997,0.060440,0.309451,0.000000
0.056038,0.309043,0.058022,0.308645,0.000000
0.055952,0.308771,0.054799,0.296557,0.000000
0.055826,0.308811,0.056410,0.305421,0.000000
0.055831,0.308685,0.060440,0.298169,0.000000
0.055866,0.308745,0.053187,0.304615,0.000000
0.055655,0.308453,0.051575,0.311868,0.000000
0.055741,0.308403,0.063663,0.311062,0.000000
0.055630,0.308423,0.053187,0.309451,0.000000
0.055791,0.308418,0.056410,0.302198,0.000000
0.055615,0.308423,0.053993,0.307839,0.000000
0.055907,0.308554,0.062857,0.311062,0.000000
0.056018,0.308675,0.054799,0.310256,0.000000
0.055937,0.308569,0.056410,0.303810,0.000000
0.055917,0.308761,0.065275,0.312674,0.000000
0.056002,0.308886,0.057216,0.304615,0.000000
0.056179,0.309163,0.052381,0.309451,0.000000
0.056194,0.309032,0.055604,0.317509,0.000000
0.056410,0.309350,0.064469,0.307839,0.000000
0.056451,0.309516,0.051575,0.309451,0.000000
0.056793,0.309435,0.061245,0.307839,0.000000
0.056808,0.309662,0.055604,0.308645,0.000000
0.056969,0.309944,0.060440,0.314286,0.000000
0.057171,0.310488,0.056410,0.311868,0.000000
0.057040,0.310644,0.051575,0.313480,0.000000
0.057176,0.311017,0.056410,0.316703,0.000000
0.057297,0.311254,0.053993,0.307033,0.000000
0.057564,0.311647,0.061245,0.315092,0.000000
0.057629,0.311924,0.051575,0.319927,0.000000
0.057871,0.312201,0.061245,0.317509,0.000000
0.057992,0.312548,0.062857,0.318315,0.000000
0.058133,0.312699,0.058828,0.309451,0.000000
0.058188,0.313052,0.056410,0.320733,0.000000
0.058405,0.313278,0.060440,0.317509,0.000000
0.058521,0.313782,0.057216,0.313480,0.000000
0.058460,0.313888,0.054799,0.322344,0.000000
0.058606,0.314346,0.059634,0.319121,0.000000
0.058697,0.314689,0.065275,0.311062,0.000000
0.058883,0.315097,0.061245,0.315092,0.000000
0.058727,0.315343,0.059634,0.313480,0.000000
0.059045,0.315721,0.062857,0.319927,0.000000
0.059226,0.316109,0.064469,0.320733,0.000000
0.059236,0.316210,0.059634,0.310256,0.000000
0.059281,0.316557,0.059634,0.324762,0.000000
0.059317,0.316799,0.064469,0.317509,0.000000
0.059609,0.317308,0.062857,0.319927,0.000000
0.059533,0.317439,0.053993,0.321538,0.000000
0.059745,0.317746,0.064469,0.324762,0.000000
0.059845,0.318043,0.060440,0.314286,0.000000
0.059871,0.318310,0.061245,0.319927,0.000000
0.059845,0.318572,0.066886,0.323956,0.000000
0.059976,0.318909,0.064469,0.323150,0.000000
0.060067,0.319398,0.060440,0.322344,0.000000
0.059921,0.319443,0.053993,0.322344,0.000000
0.060082,0.319715,0.060440,0.323956,0.000000
0.060122,0.319891,0.053993,0.319927,0.000000
0.060374,0.320138,0.057216,0.315897,0.000000
0.060268,0.320249,0.053993,0.324762,0.000000
0.060445,0.320556,0.065275,0.322344,0.000000
0.060490,0.320808,0.056410,0.324762,0.000000
0.060525,0.320763,0.056410,0.317509,0.000000
0.060530,0.320904,0.062857,0.331209,0.000000
0.060681,0.321010,0.064469,0.322344,0.000000
0.060812,0.321377,0.063663,0.324762,0.000000
0.060742,0.321458,0.054799,0.325568,0.000000
0.060757,0.321810,0.063663,0.324762,0.000000
0.060989,0.322158,0.062857,0.322344,0.000000
0.061210,0.322405,0.058828,0.323956,0.000000
0.061205,0.322631,0.066081,0.322344,0.000000
0.061452,0.322898,0.064469,0.327985,0.000000
0.061563,0.323090,0.064469,0.329597,0.000000
0.061588,0.323196,0.062051,0.322344,0.000000
0.061553,0.323468,0.065275,0.324762,0.000000
0.061654,0.323664,0.066886,0.311868,0.000000
0.061860,0.324007,0.059634,0.325568,0.000000
0.061699,0.324153,0.051575,0.331209,0.000000
0.061855,0.324566,0.068498,0.327985,0.000000
0.061905,0.324777,0.058828,0.322344,0.000000
0.062152,0.324822,0.065275,0.323150,0.000000
0.062092,0.324883,0.062857,0.333626,0.000000
0.062253,0.325099,0.064469,0.331209,0.000000
0.062328,0.325346,0.060440,0.320733,0.000000
0.062187,0.325432,0.060440,0.321538,0.000000
0.062218,0.325790,0.066886,0.331209,0.000000
0.062243,0.326021,0.062051,0.330403,0.000000
0.062505,0.326349,0.059634,0.324762,0.000000
0.062313,0.326565,0.064469,0.327985,0.000000
0.062454,0.326832,0.066081,0.330403,0.000000
0.062485,0.327079,0.055604,0.324762,0.000000
0.062646,0.327064,0.062857,0.326374,0.000000
0.062646,0.327235,0.065275,0.337656,0.000000
0.062777,0.327386,0.065275,0.326374,0.000000
0.062913,0.327759,0.062051,0.326374,0.000000
0.062792,0.327880,0.061245,0.323150,0.000000
0.062887,0.328313,0.064469,0.333626,0.000000
0.062872,0.328640,0.067692,0.332015,0.000000
0.063074,0.328892,0.064469,0.332821,0.000000
0.063054,0.329028,0.063663,0.334432,0.000000
0.063114,0.329219,0.070110,0.330403,0.000000
0.063094,0.329345,0.063663,0.324762,0.000000
0.063029,0.329209,0.063663,0.323150,0.000000
0.062998,0.329481,0.065275,0.332821,0.000000
0.063069,0.329834,0.065275,0.333626,0.000000
0.063200,0.330116,0.062857,0.323956,0.000000
0.062948,0.329950,0.063663,0.327985,0.000000
0.063003,0.330076,0.063663,0.330403,0.000000
0.062998,0.330056,0.063663,0.323956,0.000000
0.063084,0.329864,0.062051,0.322344,0.000000
0.062913,0.329713,0.055604,0.324762,0.000000
0.062908,0.329612,0.062857,0.323150,0.000000
0.062772,0.329507,0.062051,0.309451,0.000000
0.062464,0.329275,0.051575,0.305421,0.000000
0.062399,0.329068,0.059634,0.319927,0.000000
0.062182,0.328796,0.056410,0.316703,0.000000
0.062026,0.328383,0.056410,0.311062,0.000000
0.061472,0.327739,0.056410,0.318315,0.000000
0.061376,0.327240,0.062051,0.311062,0.000000
0.061029,0.326600,0.056410,0.309451,0.000000
0.060888,0.325679,0.053993,0.302198,0.000000
0.060475,0.324999,0.051575,0.311868,0.000000
0.060309,0.324087,0.056410,0.301392,0.000000
0.059860,0.323528,0.053187,0.298974,0.000000
0.059387,0.322319,0.047546,0.300586,0.000000
0.059090,0.321654,0.053993,0.305421,0.000000
0.058768,0.320864,0.044322,0.296557,0.000000
0.058566,0.320118,0.051575,0.302198,0.000000
0.058093,0.319060,0.052381,0.296557,0.000000
0.057826,0.318159,0.056410,0.302198,0.000000
0.057438,0.317247,0.046740,0.302198,0.000000
0.057070,0.316159,0.051575,0.295751,0.000000
0.056602,0.315253,0.051575,0.304615,0.000000
0.056320,0.314427,0.052381,0.300586,0.000000
0.056048,0.313681,0.050769,0.298974,0.000000
0.055514,0.312508,0.049963,0.298974,0.000000
0.055247,0.311596,0.053993,0.306227,0.000000
0.054920,0.310710,0.051575,0.298169,0.000000
0.054819,0.309904,0.051575,0.298974,0.000000
0.054406,0.309078,0.049158,0.301392,0.000000
0.054169,0.308468,0.055604,0.301392,0.000000
0.053917,0.307909,0.050769,0.296557,0.000000
0.053504,0.306907,0.044322,0.304615,0.000000
0.053268,0.306459,0.051575,0.309451,0.000000
0.053006,0.305970,0.058828,0.299780,0.000000
0.053001,0.305593,0.049158,0.299780,0.000000
0.052482,0.305059,0.055604,0.301392,0.000000
0.052532,0.304766,0.053993,0.309451,0.000000
0.052517,0.304620,0.049963,0.298974,0.000000
0.052719,0.304162,0.051575,0.299780,0.000000
0.052603,0.304021,0.052381,0.307839,0.000000
0.052708,0.303966,0.053993,0.300586,0.000000
0.052799,0.304107,0.054799,0.298169,0.000000
0.052698,0.304076,0.048352,0.296557,0.000000
0.052673,0.304394,0.055604,0.308645,0.000000
0.052824,0.304404,0.056410,0.311868,0.000000
0.052915,0.304918,0.053187,0.303810,0.000000
0.052779,0.304933,0.041099,0.310256,0.000000
0.052824,0.305109,0.059634,0.309451,0.000000
0.052865,0.305391,0.053187,0.309451,0.000000
0.052925,0.305436,0.056410,0.301392,0.000000
0.052940,0.305744,0.056410,0.319927,0.000000
0.053147,0.305970,0.058022,0.303004,0.000000
0.053262,0.306434,0.060440,0.309451,0.000000
0.053273,0.306605,0.052381,0.311062,0.000000
0.053519,0.307003,0.060440,0.316703,0.000000
0.053650,0.307446,0.059634,0.315092,0.000000
0.053882,0.307844,0.055604,0.311062,0.000000
0.053917,0.308015,0.060440,0.316703,0.000000
0.054194,0.308544,0.058828,0.313480,0.000000
0.054350,0.309088,0.055604,0.311062,0.000000
0.054330,0.309043,0.052381,0.308645,0.000000
0.054411,0.309481,0.064469,0.317509,0.000000
0.054562,0.309944,0.061245,0.315897,0.000000
0.054909,0.310634,0.054799,0.312674,0.000000
0.054864,0.310881,0.057216,0.318315,0.000000
0.055202,0.311410,0.062051,0.315092,0.000000
0.055383,0.311742,0.054799,0.314286,0.000000
0.055776,0.311964,0.058022,0.311062,0.000000
0.055856,0.312221,0.059634,0.320733,0.000000
0.056093,0.312533,0.059634,0.316703,0.000000
0.056234,0.313072,0.055604,0.311062,0.000000
0.056148,0.313087,0.051575,0.311062,0.000000
0.056239,0.313545,0.053993,0.322344,0.000000
0.056224,0.313842,0.057216,0.311868,0.000000
0.056476,0.314155,0.054799,0.316703,0.000000
0.056506,0.314316,0.050769,0.315092,0.000000
0.056733,0.314734,0.060440,0.313480,0.000000
0.056904,0.315137,0.062051,0.319927,0.000000
0.057030,0.315177,0.054799,0.309451,0.000000
0.057171,0.315439,0.057216,0.317509,0.000000
0.057322,0.315489,0.059634,0.309451,0.000000
0.057443,0.315837,0.055604,0.309451,0.000000
0.057468,0.315777,0.047546,0.321538,0.000000
0.057614,0.316064,0.062857,0.317509,0.000000
0.057790,0.316144,0.049963,0.309451,0.000000
0.057866,0.316195,0.053187,0.311868,0.000000
0.057695,0.316215,0.060440,0.313480,0.000000
0.057795,0.316315,0.059634,0.315092,0.000000
0.057861,0.316436,0.059634,0.319121,0.000000
0.057665,0.316426,0.055604,0.306227,0.000000
0.057649,0.316467,0.056410,0.314286,0.000000
0.057695,0.316346,0.055604,0.321538,0.000000
0.057790,0.316693,0.058828,0.313480,0.000000
0.057629,0.316441,0.043516,0.305421,0.000000
0.057780,0.316492,0.062857,0.315092,0.000000
0.057740,0.316406,0.051575,0.312674,0.000000
0.057831,0.316184,0.055604,0.309451,0.000000
0.057720,0.316074,0.057216,0.317509,0.000000
0.057755,0.316190,0.059634,0.315092,0.000000
0.057670,0.316285,0.058828,0.314286,0.000000
0.057458,0.316023,0.051575,0.307839,0.000000
0.057408,0.316169,0.060440,0.316703,0.000000
0.057372,0.316195,0.049963,0.320733,0.000000
0.057574,0.316492,0.053993,0.311868,0.000000
0.057559,0.316356,0.039487,0.317509,0.000000
0.057785,0.316467,0.062857,0.317509,0.000000
0.057740,0.316477,0.059634,0.327985,0.000000
0.057745,0.316381,0.055604,0.311062,0.000000
0.057710,0.316366,0.060440,0.322344,0.000000
0.057871,0.316366,0.057216,0.319121,0.000000
0.057987,0.316633,0.062051,0.311868,0.000000
0.057811,0.316587,0.052381,0.323150,0.000000
0.057947,0.316864,0.064469,0.322344,0.000000
0.057906,0.317046,0.064469,0.316703,0.000000
0.058042,0.317207,0.058828,0.321538,0.000000
0.057947,0.317277,0.053993,0.319927,0.000000
0.058037,0.317474,0.062857,0.322344,0.000000
0.058183,0.317711,0.063663,0.315092,0.000000
0.058088,0.317731,0.057216,0.318315,0.000000
0.057937,0.317922,0.054799,0.322344,0.000000
0.058052,0.318189,0.062051,0.311062,0.000000
0.058224,0.318496,0.063663,0.322344,0.000000
0.058133,0.318522,0.051575,0.319927,0.000000
0.058339,0.318925,0.064469,0.323956,0.000000
0.058551,0.319121,0.063663,0.321538,0.000000
0.058783,0.319257,0.053187,0.313480,0.000000
0.058732,0.319378,0.053993,0.316703,0.000000
0.058924,0.319620,0.061245,0.323150,0.000000
0.058984,0.320043,0.055604,0.322344,0.000000
0.058818,0.320038,0.056410,0.307033,0.000000
0.058818,0.320254,0.056410,0.327179,0.000000
0.058788,0.320551,0.057216,0.322344,0.000000
0.059029,0.321045,0.062051,0.322344,0.000000
0.058979,0.321126,0.053993,0.322344,0.000000
0.059246,0.321357,0.064469,0.323956,0.000000
0.059342,0.321564,0.060440,0.321538,0.000000
0.059442,0.321654,0.064469,0.320733,0.000000
0.059402,0.321962,0.063663,0.327179,0.000000
0.059659,0.322148,0.064469,0.324762,0.000000
0.059881,0.322470,0.066886,0.327985,0.000000
0.059785,0.322697,0.053187,0.329597,0.000000
0.059876,0.322984,0.064469,0.327179,0.000000
0.059901,0.323327,0.062051,0.323150,0.000000
0.060137,0.323568,0.061245,0.322344,0.000000
0.059996,0.323604,0.060440,0.323956,0.000000
0.060273,0.323926,0.065275,0.328791,0.000000
0.060359,0.324299,0.058828,0.327179,0.000000
0.060379,0.324299,0.060440,0.322344,0.000000
0.060228,0.324626,0.064469,0.332821,0.000000
0.060364,0.324853,0.064469,0.332821,0.000000
0.060616,0.325155,0.056410,0.326374,0.000000
0.060843,0.325321,0.059634,0.323956,0.000000
0.061064,0.325533,0.065275,0.331209,0.000000
0.061230,0.325800,0.069304,0.330403,0.000000
0.061437,0.325875,0.061245,0.325568,0.000000
0.061417,0.326177,0.064469,0.324762,0.000000
0.061492,0.326485,0.064469,0.330403,0.000000
0.061568,0.326893,0.064469,0.322344,0.000000
0.061447,0.327220,0.062051,0.321538,0.000000
0.061512,0.327693,0.064469,0.336044,0.000000
0.061638,0.327975,0.057216,0.336044,0.000000
0.061951,0.328393,0.062051,0.329597,0.000000
0.061981,0.328610,0.043516,0.326374,0.000000
0.062379,0.328902,0.065275,0.330403,0.000000
0.062429,0.329174,0.064469,0.331209,0.000000
0.062651,0.329240,0.064469,0.322344,0.000000
0.062621,0.329572,0.063663,0.331209,0.000000
0.062721,0.329864,0.064469,0.323150,0.000000
0.062782,0.330227,0.059634,0.332821,0.000000
0.062751,0.330116,0.062857,0.317509,0.000000
0.062802,0.330489,0.065275,0.336044,0.000000
0.062862,0.330876,0.059634,0.331209,0.000000
0.063084,0.331083,0.062857,0.331209,0.000000
0.063029,0.331209,0.053187,0.329597,0.000000
0.063260,0.331436,0.067692,0.332015,0.000000
0.063260,0.331763,0.068498,0.331209,0.000000
0.063326,0.331909,0.063663,0.325568,0.000000
0.063401,0.332100,0.064469,0.334432,0.000000
0.063527,0.332211,0.064469,0.335238,0.000000
0.063618,0.332654,0.060440,0.333626,0.000000
0.063562,0.332639,0.053993,0.335238,0.000000
0.063688,0.332982,0.066081,0.338462,0.000000
0.063784,0.333319,0.064469,0.333626,0.000000
0.063834,0.333339,0.064469,0.334432,0.000000
0.063708,0.333682,0.066886,0.333626,0.000000
0.063855,0.333939,0.064469,0.334432,0.000000
0.063819,0.334412,0.064469,0.332015,0.000000
0.063658,0.334347,0.058828,0.322344,0.000000
0.063724,0.334664,0.059634,0.337656,0.000000
0.063819,0.334800,0.060440,0.337656,0.000000
0.064056,0.334825,0.066081,0.334432,0.000000
0.063991,0.334830,0.063663,0.326374,0.000000
0.064172,0.334991,0.066081,0.334432,0.000000
0.064202,0.335122,0.064469,0.329597,0.000000
0.064303,0.334921,0.063663,0.324762,0.000000
0.064227,0.335006,0.064469,0.323956,0.000000
0.064303,0.334896,0.064469,0.332821,0.000000
0.064222,0.334946,0.064469,0.326374,0.000000
0.064056,0.334483,0.054799,0.339267,0.000000
0.064021,0.334392,0.069304,0.326374,0.000000
0.063814,0.334201,0.058828,0.322344,0.000000
0.063844,0.334070,0.062857,0.317509,0.000000
0.063663,0.333631,0.051575,0.321538,0.000000
0.063552,0.333193,0.064469,0.320733,0.000000
0.063356,0.332669,0.059634,0.309451,0.000000
0.063044,0.331939,0.053187,0.311062,0.000000
0.062686,0.331410,0.058022,0.315897,0.000000
0.062475,0.330740,0.058828,0.319927,0.000000
0.062283,0.330181,0.058828,0.309451,0.000000
0.061860,0.329360,0.047546,0.301392,0.000000
0.061659,0.328746,0.057216,0.311062,0.000000
0.061382,0.327854,0.052381,0.305421,0.000000
0.061215,0.326902,0.051575,0.303810,0.000000
0.060747,0.325875,0.053993,0.307033,0.000000
0.060455,0.325004,0.053993,0.309451,0.000000
0.060072,0.324213,0.055604,0.298974,0.000000
0.059538,0.322994,0.045128,0.296557,0.000000
0.059120,0.322118,0.050769,0.307033,0.000000
0.058742,0.321100,0.056410,0.303810,0.000000
0.058480,0.320113,0.057216,0.297363,0.000000
0.057866,0.318965,0.056410,0.300586,0.000000
0.057594,0.318093,0.056410,0.304615,0.000000
0.057206,0.317076,0.051575,0.298974,0.000000
0.056808,0.315817,0.049963,0.294945,0.000000
0.056274,0.314754,0.053187,0.308645,0.000000
0.055992,0.313837,0.053187,0.298974,0.000000
0.055509,0.313107,0.053993,0.299780,0.000000
0.054960,0.312009,0.049963,0.296557,0.000000
0.054708,0.311405,0.052381,0.308645,0.000000
0.054431,0.310634,0.051575,0.307839,0.000000
0.054260,0.310136,0.051575,0.298169,0.000000
0.053892,0.309304,0.061245,0.302198,0.000000
0.053897,0.308761,0.054799,0.309451,0.000000
0.053625,0.308337,0.051575,0.309451,0.000000
0.053368,0.307632,0.051575,0.302198,0.000000
0.053187,0.307174,0.052381,0.307839,0.000000
0.053126,0.306857,0.054799,0.294139,0.000000
0.053152,0.306655,0.058022,0.303004,0.000000
0.052920,0.306288,0.049158,0.308645,0.000000
0.053031,0.306167,0.061245,0.307033,0.000000
0.053026,0.306116,0.053993,0.307033,0.000000
0.053021,0.305880,0.057216,0.307839,0.000000
0.052880,0.305693,0.049158,0.309451,0.000000
0.052985,0.305749,0.058828,0.304615,0.000000
0.053031,0.305910,0.053187,0.302198,0.000000
0.052905,0.305593,0.051575,0.298974,0.000000
0.053026,0.305754,0.051575,0.310256,0.000000
0.053121,0.305819,0.056410,0.301392,0.000000
0.053383,0.306001,0.053993,0.309451,0.000000
0.053187,0.306076,0.062857,0.298169,0.000000
0.053555,0.306308,0.062857,0.310256,0.000000
0.053731,0.306620,0.051575,0.309451,0.000000
0.053988,0.306655,0.054799,0.302198,0.000000
0.054068,0.306932,0.056410,0.313480,0.000000
0.054255,0.307204,0.055604,0.311868,0.000000
0.054512,0.307673,0.062857,0.309451,0.000000
0.054507,0.307955,0.051575,0.315092,0.000000
0.054627,0.308443,0.063663,0.318315,0.000000
0.054940,0.308766,0.059634,0.311868,0.000000
0.055237,0.309214,0.056410,0.314286,0.000000
0.055312,0.309441,0.060440,0.318315,0.000000
0.055610,0.309929,0.060440,0.315897,0.000000
0.055725,0.310267,0.063663,0.306227,0.000000
0.055871,0.310493,0.058828,0.310256,0.000000
0.056053,0.310896,0.058828,0.312674,0.000000
0.056315,0.311218,0.062051,0.309451,0.000000
0.056471,0.311783,0.056410,0.314286,0.000000
0.056320,0.312044,0.051575,0.317509,0.000000
0.056582,0.312533,0.059634,0.318315,0.000000
0.056692,0.312996,0.058828,0.311868,0.000000
0.057020,0.313243,0.060440,0.313480,0.000000
0.056990,0.313525,0.058828,0.311868,0.000000
0.057221,0.313873,0.061245,0.318315,0.000000
0.057317,0.314417,0.053187,0.321538,0.000000
0.057231,0.314517,0.053993,0.309451,0.000000
0.057272,0.314935,0.052381,0.319927,0.000000
0.057483,0.315293,0.062051,0.321538,0.000000
0.057821,0.315938,0.055604,0.314286,0.000000
0.057841,0.316079,0.051575,0.307839,0.000000
0.058098,0.316537,0.064469,0.314286,0.000000
0.058339,0.316824,0.061245,0.315897,0.000000
0.058647,0.316759,0.055604,0.309451,0.000000
0.058551,0.316895,0.056410,0.319927,0.000000
0.058712,0.316990,0.061245,0.318315,0.000000
0.058868,0.317283,0.058022,0.307839,0.000000
0.058667,0.317126,0.051575,0.296557,0.000000
0.058737,0.317429,0.053993,0.322344,0.000000
0.058722,0.317524,0.053187,0.311062,0.000000
0.058919,0.317615,0.053993,0.312674,0.000000
0.058737,0.317519,0.055604,0.313480,0.000000
0.058888,0.317675,0.064469,0.316703,0.000000
0.059004,0.317665,0.062051,0.315092,0.000000
0.058979,0.317524,0.058022,0.309451,0.000000
0.058959,0.317544,0.059634,0.318315,0.000000
0.059105,0.317479,0.062857,0.315092,0.000000
0.059186,0.317640,0.063663,0.309451,0.000000
0.059009,0.317565,0.051575,0.318315,0.000000
0.059095,0.317630,0.060440,0.315092,0.000000
0.059095,0.317670,0.058828,0.321538,0.000000
0.059296,0.317685,0.058828,0.312674,0.000000
0.059095,0.317605,0.057216,0.314286,0.000000
0.059276,0.317580,0.063663,0.317509,0.000000
0.059296,0.317645,0.060440,0.319927,0.000000
0.059135,0.317358,0.059634,0.309451,0.000000
0.059075,0.317403,0.052381,0.318315,0.000000
0.059241,0.317278,0.061245,0.318315,0.000000
0.059558,0.317474,0.057216,0.311868,0.000000
0.059458,0.317323,0.047546,0.313480,0.000000
0.059604,0.317454,0.064469,0.318315,0.000000
0.059634,0.317565,0.060440,0.315092,0.000000
0.059634,0.317383,0.056410,0.310256,0.000000
0.059568,0.317293,0.063663,0.317509,0.000000
0.059583,0.317429,0.061245,0.320733,0.000000
0.059664,0.317696,0.061245,0.318315,0.000000
0.059503,0.317736,0.052381,0.325568,0.000000
0.059563,0.318043,0.064469,0.322344,0.000000
0.059649,0.318209,0.060440,0.319927,0.000000
0.059941,0.318542,0.058828,0.316703,0.000000
0.059886,0.318673,0.066081,0.317509,0.000000
0.060082,0.318940,0.064469,0.322344,0.000000
0.060198,0.319131,0.058022,0.320733,0.000000
0.060460,0.319242,0.062857,0.319121,0.000000
0.060445,0.319458,0.060440,0.317509,0.000000
0.060581,0.319625,0.064469,0.320733,0.000000
0.060656,0.319977,0.065275,0.322344,0.000000
0.060475,0.320053,0.055604,0.299780,0.000000
0.060606,0.320476,0.064469,0.325568,0.000000
0.060747,0.320667,0.055604,0.322344,0.000000
0.060888,0.320773,0.059634,0.322344,0.000000
0.060777,0.320944,0.064469,0.327985,0.000000
0.061029,0.321121,0.064469,0.326374,0.000000
0.061170,0.321292,0.062857,0.324762,0.000000
0.061205,0.321372,0.062857,0.315092,0.000000
0.061235,0.321675,0.071722,0.323150,0.000000
0.061382,0.321881,0.064469,0.319121,0.000000
0.061654,0.322344,0.065275,0.319927,0.000000
0.061568,0.322506,0.063663,0.326374,0.000000
0.061679,0.322964,0.066886,0.326374,0.000000
0.061744,0.323286,0.057216,0.326374,0.000000
0.061991,0.323483,0.064469,0.323956,0.000000
0.061946,0.323548,0.066886,0.329597,0.000000
0.062097,0.323815,0.064469,0.332015,0.000000
0.062172,0.324344,0.063663,0.323150,0.000000
0.062107,0.324545,0.051575,0.323150,0.000000
0.062127,0.324913,0.060440,0.332015,0.000000
0.062122,0.325256,0.064469,0.322344,0.000000
0.062389,0.325558,0.063663,0.323956,0.000000
0.062288,0.325754,0.066886,0.323150,0.000000
0.062404,0.326082,0.066886,0.327985,0.000000
0.062439,0.326283,0.062857,0.326374,0.000000
0.062616,0.326298,0.062857,0.319927,0.000000
0.062631,0.326570,0.066886,0.330403,0.000000
0.062741,0.326892,0.064469,0.330403,0.000000
0.062797,0.327270,0.064469,0.327985,0.000000
0.062671,0.327305,0.057216,0.323956,0.000000
0.062762,0.327779,0.073333,0.332821,0.000000
0.062948,0.328016,0.068498,0.333626,0.000000
0.063225,0.328343,0.064469,0.326374,0.000000
0.063235,0.328539,0.056410,0.327179,0.000000
0.063386,0.328922,0.066081,0.330403,0.000000
0.063472,0.329280,0.066886,0.327179,0.000000
0.063522,0.329320,0.064469,0.322344,0.000000
0.063547,0.329768,0.065275,0.332821,0.000000
0.063724,0.330086,0.068498,0.336044,0.000000
0.063935,0.330443,0.066081,0.327179,0.000000
0.063804,0.330504,0.053993,0.330403,0.000000
0.064041,0.330887,0.065275,0.336044,0.000000
0.064177,0.331158,0.060440,0.330403,0.000000
0.064409,0.331179,0.064469,0.332015,0.000000
0.064368,0.331345,0.062857,0.338462,0.000000
0.064454,0.331582,0.067692,0.332821,0.000000
0.064524,0.331914,0.064469,0.327179,0.000000
0.064509,0.331869,0.063663,0.322344,0.000000
0.064635,0.332221,0.066081,0.336044,0.000000
0.064726,0.332347,0.065275,0.337656,0.000000
0.064937,0.332609,0.064469,0.327985,0.000000
0.064761,0.332695,0.064469,0.323956,0.000000
0.065104,0.332997,0.069304,0.334432,0.000000
0.065159,0.333168,0.070110,0.334432,0.000000
0.065335,0.333188,0.066886,0.323150,0.000000
0.065315,0.333349,0.066886,0.327985,0.000000
0.065502,0.333641,0.066886,0.334432,0.000000
0.065658,0.334029,0.064469,0.334432,0.000000
0.065622,0.333949,0.062857,0.343297,0.000000
0.065824,0.334226,0.066886,0.335238,0.000000
0.065879,0.334382,0.067692,0.336850,0.000000
0.066081,0.334674,0.064469,0.337656,0.000000
0.066010,0.334603,0.064469,0.338462,0.000000
0.066121,0.334891,0.066886,0.338462,0.000000
0.066151,0.334845,0.071722,0.329597,0.000000
0.066126,0.334739,0.064469,0.324762,0.000000
0.066116,0.334860,0.071722,0.330403,0.000000
0.066232,0.334840,0.068498,0.324762,0.000000
0.066408,0.334996,0.066886,0.332821,0.000000
0.066317,0.334845,0.064469,0.332821,0.000000
0.066363,0.334941,0.070110,0.330403,0.000000
0.066353,0.334795,0.062051,0.330403,0.000000
0.066418,0.334568,0.061245,0.322344,0.000000
0.066171,0.334266,0.064469,0.323956,0.000000
0.066096,0.334090,0.066081,0.324762,0.000000
0.066121,0.333913,0.063663,0.315897,0.000000
0.065854,0.333369,0.050769,0.314286,0.000000
0.065728,0.333012,0.058022,0.322344,0.000000
0.065557,0.332473,0.062857,0.310256,0.000000
0.065491,0.332327,0.054799,0.314286,0.000000
0.064973,0.331652,0.064469,0.309451,0.000000
0.064897,0.331048,0.060440,0.314286,0.000000
0.064640,0.330398,0.053993,0.304615,0.000000
0.064565,0.329516,0.053993,0.305421,0.000000
0.064096,0.328640,0.061245,0.302198,0.000000
0.063880,0.327774,0.059634,0.303810,0.000000
0.063391,0.327008,0.048352,0.301392,0.000000
0.062867,0.325870,0.050769,0.294139,0.000000
0.062610,0.325009,0.053993,0.306227,0.000000
0.062137,0.323986,0.054799,0.304615,0.000000
0.061825,0.323196,0.055604,0.306227,0.000000
0.061220,0.322042,0.048352,0.307033,0.000000
0.061029,0.321070,0.058828,0.303810,0.000000
0.060697,0.320027,0.062857,0.297363,0.000000
0.060263,0.319005,0.051575,0.298169,0.000000
0.059770,0.318073,0.051575,0.303810,0.000000
0.059548,0.317293,0.060440,0.296557,0.000000
0.059165,0.316451,0.058022,0.297363,0.000000
0.058692,0.315318,0.051575,0.298974,0.000000
0.058375,0.314533,0.055604,0.305421,0.000000
0.057942,0.313717,0.056410,0.306227,0.000000
0.057680,0.312739,0.051575,0.304615,0.000000
0.057191,0.311903,0.049158,0.298169,0.000000
0.056909,0.311193,0.057216,0.305421,0.000000
0.056687,0.310544,0.051575,0.308645,0.000000
0.056244,0.309718,0.049963,0.298974,0.000000
0.055957,0.309148,0.063663,0.307839,0.000000
0.055640,0.308685,0.057216,0.296557,0.000000
0.055605,0.308322,0.051575,0.306227,0.000000
0.055202,0.307854,0.040293,0.300586,0.000000
0.055191,0.307612,0.060440,0.303810,0.000000
0.055020,0.307209,0.053187,0.307033,0.000000
0.055061,0.306680,0.055604,0.300586,0.000000
0.054894,0.306444,0.055604,0.310256,0.000000
0.054955,0.306293,0.058828,0.307839,0.000000
0.054925,0.306262,0.051575,0.305421,0.000000
0.054794,0.306026,0.051575,0.301392,0.000000
0.054804,0.306257,0.054799,0.311868,0.000000
0.055056,0.306353,0.059634,0.304615,0.000000
0.055232,0.306655,0.055604,0.309451,0.000000
0.055000,0.306690,0.056410,0.309451,0.000000
0.055222,0.306912,0.061245,0.311868,0.000000
0.055272,0.307018,0.059634,0.309451,0.000000
0.055378,0.307114,0.057216,0.309451,0.000000
0.055433,0.307436,0.060440,0.316703,0.000000
0.055655,0.307652,0.059634,0.307033,0.000000
0.055907,0.308040,0.064469,0.311062,0.000000
0.055786,0.308161,0.049158,0.311868,0.000000
0.055957,0.308539,0.060440,0.314286,0.000000
0.056214,0.308997,0.051575,0.316703,0.000000
0.056415,0.309375,0.060440,0.312674,0.000000
0.056365,0.309566,0.053187,0.315092,0.000000
0.056687,0.310045,0.065275,0.318315,0.000000
0.056914,0.310609,0.058828,0.321538,0.000000
0.056929,0.310871,0.058828,0.310256,0.000000
0.057146,0.311415,0.062857,0.322344,0.000000
0.057367,0.311949,0.064469,0.323956,0.000000
0.057770,0.312573,0.057216,0.319927,0.000000
0.057947,0.312870,0.064469,0.322344,0.000000
0.058299,0.313384,0.064469,0.322344,0.000000
0.058556,0.313747,0.065275,0.318315,0.000000
0.058974,0.313918,0.059634,0.311868,0.000000
0.059095,0.314356,0.065275,0.310256,0.000000
0.059392,0.314840,0.066886,0.324762,0.000000
0.059730,0.315444,0.063663,0.319927,0.000000
0.059694,0.315948,0.053993,0.298169,0.000000
0.059860,0.316492,0.058828,0.323956,0.000000
0.060052,0.316925,0.060440,0.315092,0.000000
0.060420,0.317484,0.062857,0.321538,0.000000
0.060656,0.317746,0.064469,0.321538,0.000000
0.060898,0.318149,0.065275,0.321538,0.000000
0.061150,0.318607,0.055604,0.322344,0.000000
0.061432,0.318874,0.059634,0.309451,0.000000
0.061528,0.319227,0.062051,0.323956,0.000000
0.061820,0.319549,0.064469,0.316703,0.000000
0.062082,0.320007,0.056410,0.316703,0.000000
0.062046,0.320083,0.053993,0.327985,0.000000
0.062157,0.320566,0.064469,0.322344,0.000000
0.062248,0.320838,0.057216,0.318315,0.000000
0.062631,0.321055,0.064469,0.318315,0.000000
0.062585,0.321161,0.060440,0.318315,0.000000
0.062701,0.321332,0.064469,0.327179,0.000000
0.062802,0.321589,0.063663,0.321538,0.000000
0.062807,0.321695,0.053187,0.313480,0.000000
0.062631,0.321750,0.060440,0.322344,0.000000
0.062661,0.321740,0.064469,0.313480,0.000000
0.062802,0.321815,0.064469,0.316703,0.000000
0.062474,0.321574,0.060440,0.322344,0.000000
0.062555,0.321639,0.064469,0.323956,0.000000
0.062520,0.321634,0.061245,0.322344,0.000000
0.062495,0.321498,0.059634,0.311062,0.000000
0.062293,0.321403,0.064469,0.313480,0.000000
0.062313,0.321418,0.064469,0.319927,0.000000
0.062273,0.321629,0.058828,0.322344,0.000000
0.062031,0.321272,0.054799,0.300586,0.000000
0.062026,0.321302,0.062051,0.322344,0.000000
0.061946,0.321256,0.058022,0.320733,0.000000
0.062072,0.321196,0.064469,0.314286,0.000000
0.061880,0.321100,0.050769,0.315092,0.000000
0.062016,0.321226,0.062857,0.322344,0.000000
0.061941,0.321292,0.063663,0.304615,0.000000
0.061825,0.321136,0.061245,0.317509,0.000000
0.061699,0.321201,0.064469,0.313480,0.000000
0.061744,0.321151,0.064469,0.322344,0.000000
0.061744,0.321226,0.058828,0.318315,0.000000
0.061462,0.320984,0.051575,0.311868,0.000000
0.061472,0.321176,0.069304,0.323150,0.000000
0.061412,0.321166,0.065275,0.322344,0.000000
0.061507,0.321256,0.060440,0.322344,0.000000
0.061371,0.321277,0.064469,0.322344,0.000000
0.061437,0.321312,0.064469,0.322344,0.000000
0.061477,0.321357,0.062857,0.319121,0.000000
0.061321,0.321287,0.062857,0.319927,0.000000
0.061356,0.321488,0.066886,0.326374,0.000000
0.061412,0.321483,0.064469,0.310256,0.000000
0.061598,0.321679,0.062051,0.323150,0.000000
0.061643,0.321725,0.055604,0.323956,0.000000
0.061845,0.321987,0.065275,0.325568,0.000000
0.061991,0.322208,0.068498,0.323956,0.000000
0.062333,0.322415,0.064469,0.316703,0.000000
0.062313,0.322440,0.064469,0.326374,0.000000
0.062444,0.322616,0.063663,0.330403,0.000000
0.062600,0.322989,0.063663,0.327179,0.000000
0.062555,0.323291,0.057216,0.324762,0.000000
0.062656,0.323704,0.070110,0.332015,0.000000
0.062757,0.323911,0.060440,0.322344,0.000000
0.062968,0.324364,0.061245,0.323150,0.000000
0.063084,0.324591,0.053993,0.327985,0.000000
0.063260,0.325024,0.069304,0.331209,0.000000
0.063431,0.325271,0.061245,0.327985,0.000000
0.063628,0.325381,0.064469,0.318315,0.000000
0.063633,0.325563,0.064469,0.323150,0.000000
0.063829,0.325789,0.064469,0.324762,0.000000
0.063895,0.326142,0.058828,0.327985,0.000000
0.063930,0.326389,0.062051,0.337656,0.000000
0.064071,0.326827,0.070110,0.336044,0.000000
0.064106,0.327079,0.068498,0.329597,0.000000
0.064404,0.327532,0.064469,0.329597,0.000000
0.064393,0.327703,0.066081,0.330403,0.000000
0.064660,0.328136,0.065275,0.334432,0.000000
0.064716,0.328429,0.064469,0.321538,0.000000
0.064751,0.328484,0.064469,0.329597,0.000000
0.064847,0.328927,0.062857,0.332821,0.000000
0.064937,0.329401,0.069304,0.327179,0.000000
0.065219,0.329799,0.066081,0.330403,0.000000
0.065134,0.329970,0.064469,0.336044,0.000000
0.065325,0.330368,0.070110,0.336044,0.000000
0.065411,0.330710,0.064469,0.332821,0.000000
0.065592,0.330932,0.068498,0.327985,0.000000
0.065527,0.331007,0.064469,0.333626,0.000000
0.065703,0.331370,0.070110,0.335238,0.000000
0.065789,0.331813,0.066081,0.336044,0.000000
0.065708,0.332060,0.060440,0.322344,0.000000
0.065824,0.332569,0.066886,0.340879,0.000000
0.065925,0.332916,0.068498,0.324762,0.000000
0.066161,0.333138,0.064469,0.332015,0.000000
0.066000,0.333294,0.064469,0.330403,0.000000
0.066247,0.333692,0.071722,0.343297,0.000000
0.066443,0.334085,0.065275,0.333626,0.000000
0.066423,0.334226,0.065275,0.328791,0.000000
0.066428,0.334427,0.064469,0.341685,0.000000
0.066569,0.334709,0.069304,0.334432,0.000000
0.066761,0.335127,0.071722,0.336044,0.000000
0.066710,0.335299,0.064469,0.335238,0.000000
0.066917,0.335712,0.066081,0.340073,0.000000
0.067103,0.336074,0.066886,0.336850,0.000000
0.067234,0.336331,0.066081,0.337656,0.000000
0.067154,0.336437,0.065275,0.335238,0.000000
0.067436,0.336875,0.076557,0.344103,0.000000
0.067496,0.337177,0.073333,0.330403,0.000000
0.067521,0.337348,0.064469,0.327985,0.000000
0.067627,0.337671,0.068498,0.337656,0.000000
0.067859,0.337897,0.070110,0.332821,0.000000
0.067959,0.338341,0.074945,0.342491,0.000000
0.067884,0.338446,0.064469,0.336850,0.000000
0.068100,0.338804,0.075751,0.340879,0.000000
0.068116,0.339147,0.073333,0.336850,0.000000
0.068267,0.339293,0.066886,0.337656,0.000000
0.068262,0.339721,0.074945,0.347326,0.000000
0.068382,0.340083,0.069304,0.344103,0.000000
0.068473,0.340451,0.068498,0.344103,0.000000
0.068367,0.340733,0.062051,0.326374,0.000000
0.068357,0.341081,0.066886,0.348132,0.000000
0.068372,0.341302,0.073333,0.344908,0.000000
0.068619,0.341771,0.066886,0.343297,0.000000
0.068367,0.341892,0.070110,0.340879,0.000000
0.068549,0.342153,0.074945,0.346520,0.000000
0.068725,0.342436,0.066081,0.348938,0.000000
0.068896,0.342420,0.070916,0.332015,0.000000
0.068765,0.342556,0.069304,0.348132,0.000000
0.068916,0.342808,0.070916,0.337656,0.000000
0.068911,0.343226,0.072527,0.348132,0.000000
0.068790,0.343382,0.065275,0.336044,0.000000
0.068921,0.343750,0.071722,0.347326,0.000000
0.068911,0.343946,0.075751,0.340879,0.000000
0.069093,0.344249,0.072527,0.339267,0.000000
0.068992,0.344299,0.067692,0.344103,0.000000
0.069093,0.344521,0.073333,0.344103,0.000000
0.069083,0.344672,0.065275,0.332015,0.000000
0.069103,0.344616,0.065275,0.333626,0.000000
0.069012,0.344626,0.068498,0.334432,0.000000
0.069128,0.344571,0.070110,0.343297,0.000000
0.069168,0.344652,0.063663,0.334432,0.000000
0.068730,0.344360,0.064469,0.329597,0.000000
0.068649,0.344334,0.069304,0.336044,0.000000
0.068544,0.344082,0.062857,0.324762,0.000000
0.068493,0.343614,0.064469,0.327985,0.000000
0.068110,0.343035,0.059634,0.328791,0.000000
0.068040,0.342571,0.064469,0.323956,0.000000
0.067854,0.342012,0.061245,0.322344,0.000000
0.067355,0.341126,0.060440,0.311062,0.000000
0.067154,0.340426,0.062051,0.323150,0.000000
0.066892,0.339660,0.060440,0.307033,0.000000
0.066826,0.338980,0.053993,0.318315,0.000000
0.066469,0.337978,0.062857,0.311062,0.000000
0.066348,0.337223,0.064469,0.318315,0.000000
0.065985,0.336291,0.058828,0.310256,0.000000
0.065829,0.335218,0.053993,0.311868,0.000000
0.065371,0.334352,0.059634,0.309451,0.000000
0.064952,0.333470,0.060440,0.316703,0.000000
0.064550,0.332790,0.049158,0.313480,0.000000
0.063991,0.331859,0.051575,0.316703,0.000000
0.063502,0.331012,0.051575,0.319927,0.000000
0.063154,0.330096,0.053187,0.317509,0.000000
0.062862,0.329179,0.057216,0.312674,0.000000
0.062182,0.328162,0.059634,0.316703,0.000000
0.061820,0.327351,0.062051,0.311868,0.000000
0.061457,0.326243,0.051575,0.302198,0.000000
0.060913,0.325135,0.056410,0.307839,0.000000
0.060420,0.324268,0.053993,0.309451,0.000000
0.060158,0.323352,0.059634,0.310256,0.000000
0.059800,0.322662,0.061245,0.317509,0.000000
0.059281,0.321735,0.052381,0.300586,0.000000
0.058984,0.321110,0.058828,0.320733,0.000000
0.058571,0.320446,0.049963,0.313480,0.000000
0.058420,0.319720,0.053993,0.311868,0.000000
0.057952,0.319186,0.059634,0.316703,0.000000
0.057861,0.318713,0.060440,0.317509,0.000000
0.057619,0.318380,0.057216,0.318315,0.000000
0.057322,0.317791,0.051575,0.311062,0.000000
0.057226,0.317615,0.056410,0.318315,0.000000
0.057060,0.317449,0.057216,0.318315,0.000000
0.057201,0.317393,0.062051,0.310256,0.000000
0.057010,0.317237,0.063663,0.317509,0.000000
0.057085,0.317298,0.063663,0.321538,0.000000
0.056919,0.317348,0.051575,0.318315,0.000000
0.056959,0.317257,0.053993,0.315092,0.000000
0.056798,0.317338,0.056410,0.311868,0.000000
0.056899,0.317514,0.059634,0.319927,0.000000
0.056854,0.317811,0.056410,0.315092,0.000000
0.056632,0.317645,0.053993,0.309451,0.000000
0.056703,0.317872,0.060440,0.324762,0.000000
0.056793,0.318048,0.055604,0.323150,0.000000
0.056990,0.318245,0.059634,0.321538,0.000000
0.056879,0.318345,0.043516,0.322344,0.000000
0.057146,0.318547,0.062857,0.322344,0.000000
0.057327,0.318839,0.054799,0.319121,0.000000
0.057604,0.318930,0.062857,0.321538,0.000000
0.057599,0.319131,0.064469,0.328791,0.000000
0.057790,0.319640,0.062857,0.324762,0.000000
0.058007,0.320143,0.057216,0.322344,0.000000
0.057962,0.320325,0.052381,0.311062,0.000000
0.058193,0.320813,0.064469,0.331209,0.000000
0.058435,0.321166,0.066081,0.332015,0.000000
0.058737,0.321594,0.061245,0.329597,0.000000
0.058732,0.322027,0.064469,0.323150,0.000000
0.059085,0.322586,0.066081,0.332821,0.000000
0.059337,0.323130,0.058828,0.323956,0.000000
0.059402,0.323281,0.060440,0.324762,0.000000
0.059578,0.323870,0.064469,0.332821,0.000000
0.059810,0.324364,0.064469,0.319927,0.000000
0.060127,0.324989,0.061245,0.332821,0.000000
0.060052,0.325245,0.067692,0.323150,0.000000
0.060379,0.325855,0.070110,0.335238,0.000000
0.060535,0.326248,0.063663,0.332015,0.000000
0.060757,0.326469,0.060440,0.327179,0.000000
0.060802,0.326746,0.064469,0.332015,0.000000
0.061079,0.327124,0.065275,0.332821,0.000000
0.061165,0.327582,0.064469,0.327985,0.000000
0.061170,0.327592,0.059634,0.325568,0.000000
0.061266,0.328076,0.064469,0.335238,0.000000
0.061477,0.328338,0.061245,0.332821,0.000000
0.061845,0.328847,0.061245,0.330403,0.000000
0.061754,0.329058,0.051575,0.334432,0.000000
0.062061,0.329486,0.068498,0.327985,0.000000
0.062323,0.329678,0.060440,0.333626,0.000000
0.062595,0.329748,0.064469,0.324762,0.000000
0.062610,0.330136,0.064469,0.334432,0.000000
0.062767,0.330494,0.066081,0.327179,0.000000
0.062898,0.330881,0.071722,0.329597,0.000000
0.062857,0.330992,0.057216,0.315092,0.000000
0.062898,0.331194,0.066886,0.336044,0.000000
0.062882,0.331380,0.068498,0.326374,0.000000
0.063129,0.331556,0.058828,0.327985,0.000000
0.063029,0.331556,0.064469,0.332015,0.000000
0.063129,0.331763,0.066886,0.331209,0.000000
0.063190,0.331833,0.062051,0.327985,0.000000
0.063210,0.331602,0.062051,0.326374,0.000000
0.063170,0.331622,0.070110,0.331209,0.000000
0.063240,0.331602,0.065275,0.323150,0.000000
0.063421,0.331763,0.058828,0.326374,0.000000
0.063180,0.331526,0.051575,0.331209,0.000000
0.063300,0.331657,0.068498,0.333626,0.000000
0.063316,0.331667,0.066081,0.327179,0.000000
0.063462,0.331602,0.060440,0.324762,0.000000
0.063381,0.331582,0.063663,0.325568,0.000000
0.063416,0.331647,0.067692,0.332015,0.000000
0.063361,0.331793,0.063663,0.329597,0.000000
0.063200,0.331597,0.058022,0.336044,0.000000
0.063175,0.331697,0.063663,0.333626,0.000000
0.063280,0.331788,0.064469,0.322344,0.000000
0.063457,0.332090,0.064469,0.331209,0.000000
0.063235,0.332030,0.068498,0.327179,0.000000
0.063442,0.332136,0.066886,0.333626,0.000000
0.063381,0.332171,0.063663,0.332821,0.000000
0.063583,0.331995,0.063663,0.326374,0.000000
0.063547,0.331924,0.064469,0.332821,0.000000
0.063562,0.332261,0.069304,0.331209,0.000000
0.063512,0.332538,0.060440,0.333626,0.000000
0.063431,0.332352,0.062051,0.335238,0.000000
0.063512,0.332488,0.066081,0.333626,0.000000
0.063512,0.332564,0.065275,0.330403,0.000000
0.063713,0.332745,0.064469,0.332015,0.000000
0.063713,0.332826,0.062857,0.333626,0.000000
0.064031,0.333012,0.068498,0.336044,0.000000
0.064086,0.333163,0.062051,0.333626,0.000000
0.064116,0.333118,0.064469,0.325568,0.000000
0.064137,0.333334,0.064469,0.337656,0.000000
0.064202,0.333485,0.066886,0.332821,0.000000
0.064298,0.333853,0.059634,0.339267,0.000000
0.064101,0.333823,0.061245,0.335238,0.000000
0.064278,0.334170,0.073333,0.336044,0.000000
0.064393,0.334357,0.068498,0.340879,0.000000
0.064640,0.334518,0.064469,0.336044,0.000000
0.064595,0.334785,0.070110,0.325568,0.000000
0.064786,0.335102,0.069304,0.336850,0.000000
0.064822,0.335414,0.066886,0.327179,0.000000
0.064691,0.335495,0.057216,0.326374,0.000000
0.064811,0.335807,0.062051,0.340879,0.000000
0.064877,0.336074,0.066081,0.342491,0.000000
0.065124,0.336593,0.068498,0.333626,0.000000
0.064902,0.336779,0.064469,0.343297,0.000000
0.065109,0.337182,0.072527,0.345714,0.000000
0.065199,0.337520,0.060440,0.336850,0.000000
0.065491,0.337500,0.065275,0.332015,0.000000
0.065486,0.337847,0.070110,0.337656,0.000000
0.065693,0.338049,0.064469,0.332821,0.000000
0.065789,0.338416,0.066081,0.340879,0.000000
0.065683,0.338683,0.062051,0.327179,0.000000
0.065839,0.338905,0.073333,0.344103,0.000000
0.066045,0.339147,0.063663,0.337656,0.000000
0.066202,0.339469,0.065275,0.340073,0.000000
0.066066,0.339650,0.071722,0.341685,0.000000
0.066277,0.340038,0.066886,0.345714,0.000000
0.066453,0.340350,0.064469,0.348132,0.000000
0.066458,0.340476,0.069304,0.340073,0.000000
0.066574,0.340768,0.068498,0.340073,0.000000
0.066781,0.340960,0.073333,0.348132,0.000000
0.066982,0.341373,0.072527,0.342491,0.000000
0.066887,0.341509,0.060440,0.343297,0.000000
0.067123,0.341912,0.072527,0.343297,0.000000
0.067274,0.342224,0.062051,0.346520,0.000000
0.067627,0.342456,0.068498,0.342491,0.000000
0.067546,0.342627,0.064469,0.343297,0.000000
0.067743,0.342959,0.071722,0.345714,0.000000
0.067924,0.343337,0.066886,0.347326,0.000000
0.067849,0.343312,0.059634,0.342491,0.000000
0.067904,0.343579,0.064469,0.351355,0.000000
0.068030,0.343785,0.073333,0.348132,0.000000
0.068327,0.343992,0.072527,0.346520,0.000000
0.068090,0.344077,0.060440,0.339267,0.000000
0.068408,0.344364,0.072527,0.348132,0.000000
0.068539,0.344435,0.078168,0.348132,0.000000
0.068936,0.344395,0.070110,0.338462,0.000000
0.068886,0.344430,0.074945,0.348938,0.000000
0.069078,0.344621,0.074945,0.343297,0.000000
0.069203,0.344989,0.064469,0.348132,0.000000
0.069093,0.344712,0.066886,0.333626,0.000000
0.069163,0.345075,0.073333,0.348938,0.000000
0.069249,0.345357,0.076557,0.340073,0.000000
0.069501,0.345553,0.068498,0.344103,0.000000
0.069480,0.345609,0.065275,0.346520,0.000000
0.069682,0.345830,0.075751,0.347326,0.000000
0.069818,0.346047,0.070110,0.343297,0.000000
0.069999,0.345870,0.068498,0.342491,0.000000
0.069964,0.345996,0.073333,0.344103,0.000000
0.070095,0.346052,0.074945,0.348938,0.000000
0.070266,0.346273,0.068498,0.348132,0.000000
0.070070,0.346258,0.066886,0.338462,0.000000
0.070221,0.346480,0.074945,0.348132,0.000000
0.070226,0.346586,0.064469,0.346520,0.000000
0.070478,0.346646,0.069304,0.348132,0.000000
0.070387,0.346717,0.073333,0.348132,0.000000
0.070498,0.346863,0.074945,0.347326,0.000000
0.070533,0.347079,0.070110,0.348132,0.000000
0.070407,0.346999,0.070110,0.334432,0.000000
0.070367,0.347130,0.077363,0.348132,0.000000
0.070317,0.347155,0.075751,0.344103,0.000000
0.070599,0.347296,0.070110,0.348132,0.000000
0.070483,0.347256,0.058022,0.352161,0.000000
0.070770,0.347442,0.076557,0.348132,0.000000
0.070830,0.347563,0.069304,0.348938,0.000000
0.071153,0.347502,0.074139,0.340073,0.000000
0.071132,0.347623,0.075751,0.348938,0.000000
0.071273,0.347799,0.075751,0.348132,0.000000
0.071470,0.348026,0.066886,0.348132,0.000000
0.071364,0.348157,0.064469,0.340879,0.000000
0.071480,0.348253,0.070110,0.348132,0.000000
0.071475,0.348313,0.074945,0.340879,0.000000
0.071676,0.348666,0.074139,0.348132,0.000000
0.071681,0.348575,0.063663,0.342491,0.000000
0.071843,0.348540,0.072527,0.344103,0.000000
0.071822,0.348333,0.071722,0.348132,0.000000
0.071692,0.347910,0.068498,0.332015,0.000000
0.071420,0.347658,0.068498,0.337656,0.000000
0.071369,0.347371,0.069304,0.327179,0.000000
0.071268,0.347180,0.059634,0.332821,0.000000
0.070956,0.346525,0.058828,0.336850,0.000000
0.070750,0.346173,0.066886,0.337656,0.000000
0.070523,0.345508,0.059634,0.327179,0.000000
0.070432,0.344838,0.062857,0.322344,0.000000
0.069924,0.344103,0.070916,0.323956,0.000000
0.069747,0.343372,0.066081,0.322344,0.000000
0.069460,0.342587,0.060440,0.322344,0.000000
0.068987,0.341443,0.060440,0.311062,0.000000
0.068695,0.340602,0.064469,0.322344,0.000000
0.068418,0.339650,0.064469,0.323150,0.000000
0.068317,0.338859,0.062857,0.320733,0.000000
0.067783,0.337822,0.051575,0.316703,0.000000
0.067632,0.336930,0.064469,0.318315,0.000000
0.067229,0.335938,0.064469,0.311868,0.000000
0.066972,0.334689,0.056410,0.313480,0.000000
0.066408,0.333636,0.064469,0.315092,0.000000
0.066131,0.332674,0.060440,0.319121,0.000000
0.065804,0.331738,0.057216,0.317509,0.000000
0.065139,0.330554,0.051575,0.320733,0.000000
0.064741,0.329678,0.064469,0.319927,0.000000
0.064268,0.328670,0.055604,0.319927,0.000000
0.064041,0.327613,0.062051,0.311062,0.000000
0.063522,0.326575,0.058022,0.313480,0.000000
0.063316,0.325593,0.064469,0.310256,0.000000
0.062933,0.324611,0.059634,0.318315,0.000000
0.062500,0.323437,0.058828,0.309451,0.000000
0.061961,0.322556,0.060440,0.305421,0.000000
0.061729,0.321614,0.060440,0.315092,0.000000
0.061477,0.321045,0.053993,0.313480,0.000000
0.061145,0.320163,0.055604,0.321538,0.000000
0.060948,0.319584,0.064469,0.317509,0.000000
0.060707,0.319060,0.052381,0.317509,0.000000
0.060686,0.318602,0.062857,0.314286,0.000000
0.060409,0.318073,0.062051,0.312674,0.000000
0.060404,0.317887,0.064469,0.317509,0.000000
0.060309,0.317555,0.058828,0.313480,0.000000
0.060132,0.317278,0.053993,0.309451,0.000000
0.060001,0.317242,0.055604,0.320733,0.000000
0.059951,0.317101,0.063663,0.307033,0.000000
0.060137,0.317232,0.062051,0.318315,0.000000
0.059850,0.317061,0.051575,0.320733,0.000000
0.059991,0.317177,0.064469,0.319927,0.000000
0.060047,0.317247,0.073333,0.320733,0.000000
0.060248,0.317126,0.061245,0.315092,0.000000
0.060253,0.317217,0.063663,0.321538,0.000000
0.060384,0.317383,0.064469,0.321538,0.000000
0.060460,0.317731,0.059634,0.319927,0.000000
0.060359,0.317741,0.056410,0.323150,0.000000
0.060394,0.317993,0.059634,0.322344,0.000000
0.060314,0.318270,0.065275,0.318315,0.000000
0.060601,0.318537,0.063663,0.322344,0.000000
0.060601,0.318622,0.068498,0.322344,0.000000
0.060767,0.318980,0.066081,0.324762,0.000000
0.060873,0.319242,0.064469,0.321538,0.000000
0.060948,0.319302,0.062857,0.317509,0.000000
0.060923,0.319645,0.064469,0.322344,0.000000
0.061105,0.319987,0.065275,0.324762,0.000000
0.061336,0.320441,0.064469,0.322344,0.000000
0.061271,0.320652,0.054799,0.329597,0.000000
0.061361,0.321246,0.065275,0.326374,0.000000
0.061482,0.321584,0.066081,0.329597,0.000000
0.061699,0.321992,0.064469,0.322344,0.000000
0.061654,0.322163,0.062051,0.324762,0.000000
0.061895,0.322606,0.066886,0.327179,0.000000
0.062036,0.322989,0.062857,0.320733,0.000000
0.062107,0.323130,0.063663,0.322344,0.000000
0.062087,0.323568,0.062857,0.334432,0.000000
0.062253,0.323891,0.066081,0.327985,0.000000
0.062550,0.324243,0.066886,0.323956,0.000000
0.062323,0.324430,0.065275,0.327179,0.000000
0.062495,0.324878,0.066886,0.331209,0.000000
0.062469,0.325200,0.064469,0.326374,0.000000
0.062757,0.325341,0.064469,0.324762,0.000000
0.062706,0.325523,0.066886,0.326374,0.000000
0.062772,0.325749,0.066886,0.327179,0.000000
0.062807,0.326208,0.063663,0.327179,0.000000
0.062605,0.325976,0.056410,0.325568,0.000000
0.062646,0.326344,0.065275,0.332015,0.000000
0.062731,0.326464,0.060440,0.330403,0.000000
0.062948,0.326686,0.066081,0.321538,0.000000
0.062691,0.326741,0.050769,0.323150,0.000000
0.062968,0.326908,0.068498,0.330403,0.000000
0.062968,0.327069,0.058022,0.324762,0.000000
0.063013,0.327013,0.061245,0.318315,0.000000
0.062958,0.327054,0.061245,0.325568,0.000000
0.063049,0.327104,0.064469,0.324762,0.000000
0.062918,0.327341,0.058828,0.326374,0.000000
0.062817,0.327280,0.057216,0.325568,0.000000
0.062913,0.327396,0.066081,0.323956,0.000000
0.062721,0.327477,0.066886,0.321538,0.000000
0.062978,0.327537,0.062857,0.322344,0.000000
0.062948,0.327467,0.064469,0.322344,0.000000
0.063059,0.327567,0.066081,0.327179,0.000000
0.063114,0.327683,0.064469,0.323150,0.000000
0.063084,0.327557,0.063663,0.322344,0.000000
0.063139,0.327598,0.062857,0.330403,0.000000
0.063159,0.327628,0.064469,0.327985,0.000000
0.063275,0.327759,0.067692,0.326374,0.000000
0.063235,0.327532,0.059634,0.318315,0.000000
0.063321,0.327769,0.069304,0.326374,0.000000
0.063290,0.327718,0.065275,0.323956,0.000000
0.063638,0.327608,0.065275,0.323956,0.000000
0.063598,0.327678,0.064469,0.325568,0.000000
0.063779,0.327779,0.064469,0.326374,0.000000
0.063769,0.328011,0.064469,0.326374,0.000000
0.063658,0.327779,0.060440,0.323956,0.000000
0.063628,0.327985,0.066081,0.334432,0.000000
0.063729,0.327945,0.064469,0.326374,0.000000
0.063955,0.328348,0.064469,0.326374,0.000000
0.063829,0.328343,0.051575,0.322344,0.000000
0.063940,0.328610,0.070916,0.336044,0.000000
0.063950,0.328776,0.064469,0.323956,0.000000
0.064232,0.328640,0.064469,0.322344,0.000000
0.064167,0.328766,0.066081,0.322344,0.000000
0.064313,0.328756,0.065275,0.326374,0.000000
0.064358,0.329063,0.062857,0.324762,0.000000
0.064242,0.329229,0.062051,0.310256,0.000000
0.064298,0.329552,0.065275,0.336850,0.000000
0.064529,0.329658,0.067692,0.332821,0.000000
0.064686,0.329874,0.064469,0.327985,0.000000
0.064580,0.329894,0.066081,0.331209,0.000000
0.064892,0.330176,0.071722,0.334432,0.000000
0.064902,0.330343,0.065275,0.332821,0.000000
0.064907,0.330368,0.064469,0.326374,0.000000
0.064963,0.330650,0.065275,0.337656,0.000000
0.065099,0.330902,0.065275,0.336044,0.000000
0.065255,0.331294,0.066886,0.331209,0.000000
0.064973,0.331345,0.063663,0.327985,0.000000
0.065154,0.331702,0.070110,0.344103,0.000000
0.065255,0.331995,0.070110,0.327179,0.000000
0.065371,0.332120,0.067692,0.337656,0.000000
0.065360,0.332448,0.065275,0.336044,0.000000
0.065582,0.332856,0.070110,0.336850,0.000000
0.065622,0.333183,0.066886,0.327985,0.000000
0.065532,0.333052,0.062051,0.331209,0.000000
0.065552,0.333460,0.064469,0.338462,0.000000
0.065632,0.333737,0.073333,0.336044,0.000000
0.065809,0.334241,0.066886,0.332821,0.000000
0.065738,0.334402,0.051575,0.332821,0.000000
0.066030,0.334850,0.068498,0.338462,0.000000
0.066262,0.335213,0.064469,0.338462,0.000000
0.066428,0.335213,0.067692,0.326374,0.000000
0.066499,0.335566,0.068498,0.333626,0.000000
0.066690,0.335802,0.070110,0.340073,0.000000
0.066876,0.336437,0.067692,0.343297,0.000000
0.066826,0.336764,0.064469,0.321538,0.000000
0.067007,0.337313,0.069304,0.339267,0.000000
0.067023,0.337585,0.062857,0.336850,0.000000
0.067214,0.337857,0.067692,0.336850,0.000000
0.067269,0.338023,0.065275,0.338462,0.000000
0.067506,0.338451,0.070110,0.347326,0.000000
0.067602,0.338769,0.077363,0.341685,0.000000
0.067713,0.339000,0.066081,0.336850,0.000000
0.067793,0.339338,0.073333,0.333626,0.000000
0.068085,0.339504,0.068498,0.344908,0.000000
0.068171,0.339942,0.074139,0.343297,0.000000
0.068065,0.340028,0.064469,0.345714,0.000000
0.068246,0.340285,0.070110,0.344908,0.000000
0.068423,0.340537,0.070110,0.340073,0.000000
0.068715,0.340788,0.070110,0.339267,0.000000
0.068594,0.341081,0.077363,0.336044,0.000000
0.068790,0.341398,0.074945,0.345714,0.000000
0.068931,0.341856,0.067692,0.346520,0.000000
0.068775,0.341675,0.068498,0.334432,0.000000
0.068821,0.341907,0.072527,0.345714,0.000000
0.068987,0.342033,0.073333,0.348132,0.000000
0.069183,0.342481,0.068498,0.337656,0.000000
0.069269,0.342410,0.074139,0.340073,0.000000
0.069561,0.342642,0.078168,0.344103,0.000000
0.069672,0.342864,0.071722,0.340073,0.000000
0.069924,0.342793,0.068498,0.335238,0.000000
0.069909,0.342864,0.066886,0.340073,0.000000
0.069924,0.343040,0.076557,0.344103,0.000000
0.070065,0.343433,0.066081,0.336044,0.000000
0.070004,0.343448,0.064469,0.330403,0.000000
0.070130,0.343760,0.075751,0.336044,0.000000
0.070095,0.343805,0.072527,0.343297,0.000000
0.070251,0.343931,0.070110,0.346520,0.000000
0.070196,0.343997,0.066081,0.345714,0.000000
0.070458,0.344274,0.078168,0.348132,0.000000
0.070533,0.344440,0.074945,0.336044,0.000000
0.070573,0.344485,0.072527,0.340879,0.000000
0.070568,0.344621,0.071722,0.344908,0.000000
0.070775,0.344732,0.075751,0.335238,0.000000
0.070855,0.344959,0.072527,0.341685,0.000000
0.070730,0.344949,0.066081,0.334432,0.000000
0.070810,0.345377,0.076557,0.350549,0.000000
0.070956,0.345488,0.066886,0.348132,0.000000
0.071178,0.345624,0.071722,0.340879,0.000000
0.071052,0.345603,0.076557,0.347326,0.000000
0.071208,0.345790,0.078168,0.348132,0.000000
0.071279,0.345840,0.066886,0.344908,0.000000
0.071218,0.345543,0.068498,0.342491,0.000000
0.071022,0.345578,0.067692,0.341685,0.000000
0.071077,0.345462,0.073333,0.333626,0.000000
0.071148,0.345588,0.071722,0.337656,0.000000
0.071007,0.345342,0.071722,0.344908,0.000000
0.071102,0.345518,0.071722,0.339267,0.000000
0.071027,0.345296,0.063663,0.331209,0.000000
0.070871,0.344838,0.065275,0.326374,0.000000
0.070548,0.344490,0.070110,0.329597,0.000000
0.070453,0.344082,0.070110,0.331209,0.000000
0.070352,0.343715,0.062051,0.323150,0.000000
0.069929,0.342904,0.057216,0.304615,0.000000
0.069662,0.342400,0.062051,0.333626,0.000000
0.069390,0.341750,0.061245,0.320733,0.000000
0.069213,0.341015,0.063663,0.322344,0.000000
0.068589,0.340204,0.049158,0.317509,0.000000
0.068433,0.339494,0.064469,0.318315,0.000000
0.068176,0.338527,0.059634,0.311062,0.000000
0.067869,0.337409,0.058828,0.309451,0.000000
0.067461,0.336528,0.060440,0.310256,0.000000
0.067214,0.335586,0.063663,0.315897,0.000000
0.066902,0.334699,0.062857,0.305421,0.000000
0.066317,0.333425,0.056410,0.306227,0.000000
0.065920,0.332483,0.059634,0.313480,0.000000
0.065562,0.331466,0.059634,0.309451,0.000000
0.065179,0.330378,0.059634,0.309451,0.000000
0.064585,0.329129,0.057216,0.310256,0.000000
0.064242,0.328157,0.062857,0.311062,0.000000
0.063794,0.327084,0.058828,0.317509,0.000000
0.063210,0.325880,0.053993,0.305421,0.000000
0.062580,0.324963,0.062051,0.316703,0.000000
0.062192,0.323986,0.060440,0.297363,0.000000
0.061855,0.323115,0.049963,0.313480,0.000000
0.061296,0.321997,0.056410,0.306227,0.000000
0.061034,0.321236,0.065275,0.313480,0.000000
0.060812,0.320320,0.053993,0.309451,0.000000
0.060505,0.319348,0.056410,0.308645,0.000000
0.060057,0.318355,0.064469,0.313480,0.000000
0.059891,0.317570,0.058828,0.311868,0.000000
0.059659,0.317187,0.056410,0.309451,0.000000
0.059271,0.316426,0.051575,0.316703,0.000000
0.059024,0.316064,0.064469,0.317509,0.000000
0.058808,0.315706,0.055604,0.314286,0.000000
0.058783,0.315555,0.056410,0.311868,0.000000
0.058485,0.315197,0.049963,0.309451,0.000000
0.058511,0.315016,0.064469,0.311062,0.000000
0.058445,0.314880,0.062051,0.311868,0.000000
0.058591,0.314472,0.056410,0.307839,0.000000
0.058536,0.314316,0.058828,0.309451,0.000000
0.058606,0.314251,0.062857,0.315092,0.000000
0.058475,0.314336,0.054799,0.311868,0.000000
0.058299,0.314104,0.053187,0.303004,0.000000
0.058304,0.314165,0.060440,0.315092,0.000000
0.058244,0.314190,0.055604,0.309451,0.000000
0.058400,0.314472,0.062051,0.313480,0.000000
0.058324,0.314482,0.064469,0.321538,0.000000
0.058455,0.314779,0.063663,0.317509,0.000000
0.058606,0.314935,0.063663,0.322344,0.000000
0.058571,0.315036,0.064469,0.314286,0.000000
0.058470,0.315273,0.064469,0.324762,0.000000
0.058687,0.315625,0.064469,0.311062,0.000000
0.058939,0.316084,0.057216,0.315092,0.000000
0.058808,0.316180,0.055604,0.314286,0.000000
0.059050,0.316572,0.064469,0.324762,0.000000
0.059332,0.316910,0.063663,0.322344,0.000000
0.059775,0.317111,0.063663,0.321538,0.000000
0.059740,0.317288,0.063663,0.326374,0.000000
0.059916,0.317721,0.064469,0.322344,0.000000
0.060122,0.318280,0.059634,0.325568,0.000000
0.060047,0.318496,0.060440,0.307033,0.000000
0.060183,0.319010,0.061245,0.331209,0.000000
0.060364,0.319317,0.059634,0.313480,0.000000
0.060712,0.319771,0.064469,0.322344,0.000000
0.060586,0.320038,0.066886,0.322344,0.000000
0.060777,0.320491,0.065275,0.327985,0.000000
0.060933,0.320869,0.062857,0.322344,0.000000
0.061195,0.321010,0.062051,0.316703,0.000000
0.061251,0.321236,0.063663,0.322344,0.000000
0.061452,0.321544,0.062857,0.323150,0.000000
0.061618,0.322057,0.064469,0.326374,0.000000
0.061482,0.322339,0.058828,0.332821,0.000000
0.061583,0.322823,0.066081,0.330403,0.000000
0.061744,0.323201,0.065275,0.323150,0.000000
0.061996,0.323513,0.064469,0.322344,0.000000
0.062021,0.323704,0.064469,0.326374,0.000000
0.062253,0.324047,0.068498,0.324762,0.000000
0.062399,0.324233,0.058828,0.323150,0.000000
0.062444,0.324354,0.063663,0.318315,0.000000
0.062454,0.324515,0.064469,0.322344,0.000000
0.062610,0.324732,0.064469,0.315092,0.000000
0.062782,0.324979,0.059634,0.322344,0.000000
0.062862,0.324933,0.060440,0.324762,0.000000
0.062938,0.325084,0.064469,0.324762,0.000000
0.062983,0.325180,0.065275,0.322344,0.000000
0.063316,0.325130,0.063663,0.320733,0.000000
0.063235,0.325069,0.062857,0.314286,0.000000
0.063306,0.325205,0.064469,0.325568,0.000000
0.063275,0.325392,0.064469,0.322344,0.000000
0.063134,0.325155,0.055604,0.318315,0.000000
0.063210,0.325261,0.066886,0.323956,0.000000
0.063190,0.325175,0.064469,0.323150,0.000000
0.063416,0.325256,0.065275,0.319927,0.000000
0.063029,0.325074,0.058022,0.318315,0.000000
0.063164,0.325079,0.066886,0.323956,0.000000
0.063104,0.324999,0.059634,0.322344,0.000000
0.063386,0.324707,0.064469,0.318315,0.000000
0.063386,0.324626,0.065275,0.322344,0.000000
0.063401,0.324606,0.066081,0.317509,0.000000
0.063421,0.324651,0.053993,0.319927,0.000000
0.063230,0.324737,0.057216,0.309451,0.000000
0.063220,0.324822,0.064469,0.327985,0.000000
0.063079,0.324787,0.066886,0.323150,0.000000
0.063250,0.324717,0.060440,0.322344,0.000000
0.063119,0.324686,0.066886,0.323150,0.000000
0.063285,0.324702,0.066081,0.329597,0.000000
0.063321,0.324717,0.061245,0.316703,0.000000
0.063336,0.324616,0.064469,0.319927,0.000000
0.063371,0.324757,0.062857,0.322344,0.000000
0.063436,0.324792,0.065275,0.327179,0.000000
0.063557,0.324963,0.066886,0.322344,0.000000
0.063492,0.324908,0.063663,0.325568,0.000000
0.063572,0.325170,0.066886,0.323150,0.000000
0.063673,0.325291,0.064469,0.330403,0.000000
0.063789,0.325356,0.064469,0.327179,0.000000
0.063703,0.325512,0.062051,0.322344,0.000000
0.063880,0.325674,0.066886,0.327179,0.000000
0.063960,0.325920,0.064469,0.322344,0.000000
0.063809,0.326077,0.055604,0.316703,0.000000
0.063784,0.326283,0.070110,0.332015,0.000000
0.063880,0.326389,0.065275,0.326374,0.000000
0.064111,0.326797,0.066886,0.331209,0.000000
0.063975,0.326837,0.072527,0.319927,0.000000
0.064192,0.327180,0.067692,0.332015,0.000000
0.064162,0.327487,0.069304,0.335238,0.000000
0.064529,0.327522,0.065275,0.323150,0.000000
0.064474,0.327764,0.065275,0.322344,0.000000
0.064665,0.327930,0.067692,0.332821,0.000000
0.064766,0.328303,0.066886,0.324762,0.000000
0.064640,0.328131,0.062857,0.334432,0.000000
0.064822,0.328524,0.068498,0.336850,0.000000
0.064877,0.328806,0.065275,0.324762,0.000000
0.065104,0.328973,0.066886,0.326374,0.000000
0.065094,0.329209,0.064469,0.335238,0.000000
0.065451,0.329617,0.070110,0.332821,0.000000
0.065562,0.330000,0.066081,0.336044,0.000000
0.065698,0.330000,0.068498,0.331209,0.000000
0.065743,0.330307,0.065275,0.338462,0.000000
0.065940,0.330740,0.071722,0.332821,0.000000
0.066086,0.331179,0.072527,0.336044,0.000000
0.065915,0.331249,0.064469,0.318315,0.000000
0.066136,0.331758,0.071722,0.339267,0.000000
0.066232,0.332100,0.076557,0.333626,0.000000
0.066448,0.332347,0.065275,0.335238,0.000000
0.066373,0.332634,0.077363,0.337656,0.000000
0.066569,0.333057,0.069304,0.337656,0.000000
0.066710,0.333465,0.066886,0.329597,0.000000
0.066720,0.333667,0.065275,0.336044,0.000000
0.066821,0.334100,0.070110,0.344908,0.000000
0.066962,0.334427,0.071722,0.339267,0.000000
0.067219,0.334755,0.066081,0.337656,0.000000
0.067325,0.334916,0.074945,0.345714,0.000000
0.067572,0.335460,0.075751,0.336044,0.000000
0.067662,0.335812,0.073333,0.335238,0.000000
0.067874,0.335943,0.068498,0.333626,0.000000
0.067924,0.336170,0.070110,0.336850,0.000000
0.068211,0.336417,0.068498,0.342491,0.000000
0.068403,0.336951,0.077363,0.342491,0.000000
0.068342,0.337001,0.060440,0.334432,0.000000
0.068569,0.337575,0.078168,0.345714,0.000000
0.068715,0.337978,0.064469,0.333626,0.000000
0.069007,0.338638,0.069304,0.343297,0.000000
0.068972,0.338844,0.058828,0.334432,0.000000
0.069254,0.339293,0.075751,0.344103,0.000000
0.069460,0.339670,0.067692,0.341685,0.000000
0.069556,0.339711,0.070110,0.336044,0.000000
0.069556,0.340008,0.068498,0.343297,0.000000
0.069747,0.340139,0.072527,0.346520,0.000000
0.069959,0.340572,0.073333,0.339267,0.000000
0.069934,0.340834,0.064469,0.327985,0.000000
0.070095,0.341126,0.076557,0.348132,0.000000
0.070206,0.341403,0.065275,0.348132,0.000000
0.070493,0.341730,0.070110,0.339267,0.000000
0.070397,0.341826,0.068498,0.345714,0.000000
0.070619,0.342133,0.076557,0.347326,0.000000
0.070724,0.342435,0.071722,0.343297,0.000000
0.070760,0.342300,0.068498,0.343297,0.000000
0.070790,0.342607,0.070110,0.346520,0.000000
0.070845,0.342864,0.071722,0.347326,0.000000
0.071062,0.343131,0.066886,0.340879,0.000000
0.070986,0.343211,0.074945,0.336850,0.000000
0.071148,0.343493,0.078168,0.348132,0.000000
0.071248,0.343720,0.071722,0.342491,0.000000
0.071324,0.343735,0.071722,0.340879,0.000000
0.071279,0.343821,0.065275,0.337656,0.000000
0.071455,0.344027,0.076557,0.348938,0.000000
0.071515,0.344395,0.074139,0.345714,0.000000
0.071329,0.344193,0.066886,0.323150,0.000000
0.071415,0.344495,0.076557,0.350549,0.000000
0.071425,0.344606,0.070110,0.344103,0.000000
0.071586,0.345004,0.068498,0.345714,0.000000
0.071319,0.344989,0.076557,0.346520,0.000000
0.071485,0.345155,0.074139,0.345714,0.000000
0.071445,0.345251,0.076557,0.341685,0.000000
0.071455,0.345029,0.067692,0.335238,0.000000
0.071445,0.344944,0.067692,0.337656,0.000000
0.071430,0.344843,0.072527,0.333626,0.000000
0.071460,0.344939,0.064469,0.330403,0.000000
0.071153,0.344546,0.063663,0.325568,0.000000
0.071057,0.344455,0.073333,0.341685,0.000000
0.070845,0.344203,0.062051,0.336850,0.000000
0.070724,0.343730,0.064469,0.332821,0.000000
0.070337,0.343216,0.059634,0.327179,0.000000
0.070206,0.342778,0.066081,0.329597,0.000000
0.069994,0.342229,0.064469,0.320733,0.000000
0.069606,0.341494,0.062051,0.315092,0.000000
0.069254,0.340768,0.064469,0.323956,0.000000
0.069012,0.340073,0.062051,0.327179,0.000000
0.068881,0.339590,0.063663,0.316703,0.000000
0.068463,0.338668,0.051575,0.319927,0.000000
0.068282,0.337943,0.064469,0.319927,0.000000
0.067939,0.336946,0.053187,0.311868,0.000000
0.067672,0.335843,0.059634,0.311062,0.000000
0.067214,0.334724,0.058828,0.313480,0.000000
0.066982,0.333732,0.064469,0.316703,0.000000
0.066620,0.332952,0.059634,0.318315,0.000000
0.066015,0.331592,0.051575,0.298169,0.000000
0.065632,0.330710,0.054799,0.315897,0.000000
0.065104,0.329617,0.053187,0.302198,0.000000
0.064882,0.328872,0.055604,0.310256,0.000000
0.064419,0.327749,0.061245,0.311868,0.000000
0.064172,0.326817,0.060440,0.312674,0.000000
0.063794,0.325749,0.063663,0.307033,0.000000
0.063512,0.324480,0.056410,0.307839,0.000000
0.062978,0.323447,0.057216,0.313480,0.000000
0.062716,0.322355,0.060440,0.307839,0.000000
0.062389,0.321549,0.060440,0.309451,0.000000
0.061729,0.320587,0.053993,0.308645,0.000000
0.061412,0.319715,0.062051,0.311868,0.000000
0.061115,0.318773,0.062051,0.308645,0.000000
0.060999,0.318013,0.058022,0.307839,0.000000
0.060601,0.317152,0.055604,0.311062,0.000000
0.060490,0.316527,0.064469,0.315092,0.000000
0.060319,0.315978,0.056410,0.319121,0.000000
0.060007,0.315303,0.057216,0.307033,0.000000
0.059840,0.314875,0.064469,0.320733,0.000000
0.059750,0.314462,0.062051,0.299780,0.000000
0.059800,0.314220,0.064469,0.306227,0.000000
0.059271,0.313953,0.044322,0.305421,0.000000
0.059266,0.313802,0.064469,0.322344,0.000000
0.059125,0.313631,0.054799,0.311868,0.000000
0.059120,0.313309,0.058828,0.309451,0.000000
0.058969,0.313143,0.058828,0.305421,0.000000
0.059034,0.313163,0.063663,0.314286,0.000000
0.059004,0.313248,0.056410,0.315092,0.000000
0.058798,0.313127,0.052381,0.298169,0.000000
0.058778,0.313314,0.055604,0.317509,0.000000
0.058813,0.313279,0.059634,0.317509,0.000000
0.059070,0.313611,0.060440,0.311868,0.000000
0.059014,0.313535,0.039487,0.316703,0.000000
0.059332,0.313762,0.064469,0.315897,0.000000
0.059412,0.313928,0.062051,0.314286,0.000000
0.059402,0.313868,0.060440,0.307839,0.000000
0.059347,0.314039,0.061245,0.315092,0.000000
0.059558,0.314266,0.064469,0.313480,0.000000
0.059689,0.314719,0.060440,0.318315,0.000000
0.059488,0.314825,0.057216,0.326374,0.000000
0.059568,0.315268,0.064469,0.322344,0.000000
0.059659,0.315646,0.064469,0.322344,0.000000
0.059961,0.315893,0.060440,0.315092,0.000000
0.059916,0.316099,0.058022,0.322344,0.000000
0.060052,0.316497,0.064469,0.322344,0.000000
0.060238,0.316839,0.062051,0.319121,0.000000
0.060294,0.317026,0.058022,0.314286,0.000000
0.060319,0.317308,0.064469,0.323956,0.000000
0.060520,0.317650,0.064469,0.322344,0.000000
0.060782,0.318038,0.066081,0.320733,0.000000
0.060732,0.318154,0.053187,0.319927,0.000000
0.060908,0.318506,0.065275,0.323956,0.000000
0.061089,0.318799,0.055604,0.319927,0.000000
0.061618,0.318975,0.062857,0.313480,0.000000
0.061563,0.319307,0.053187,0.322344,0.000000
0.061825,0.319579,0.064469,0.322344,0.000000
0.061900,0.319932,0.060440,0.320733,0.000000
0.061835,0.319750,0.056410,0.307839,0.000000
0.061915,0.320093,0.064469,0.323150,0.000000
0.062026,0.320375,0.063663,0.319927,0.000000
0.062323,0.320763,0.064469,0.317509,0.000000
0.062122,0.320828,0.044322,0.319927,0.000000
0.062338,0.321181,0.064469,0.323956,0.000000
0.062374,0.321402,0.064469,0.318315,0.000000
0.062490,0.321433,0.062857,0.314286,0.000000
0.062464,0.321574,0.064469,0.315092,0.000000
0.062540,0.321750,0.064469,0.320733,0.000000
0.062626,0.321997,0.062857,0.323150,0.000000
0.062474,0.322133,0.061245,0.308645,0.000000
0.062575,0.322234,0.060440,0.321538,0.000000
0.062580,0.322239,0.064469,0.324762,0.000000
0.062882,0.322339,0.063663,0.319121,0.000000
0.062802,0.322244,0.060440,0.322344,0.000000
0.062898,0.322218,0.070110,0.322344,0.000000
0.062877,0.322244,0.065275,0.322344,0.000000
0.062867,0.322098,0.059634,0.309451,0.000000
0.062782,0.322148,0.061245,0.321538,0.000000
0.062807,0.322173,0.066081,0.322344,0.000000
0.062928,0.322319,0.053993,0.319121,0.000000
0.062767,0.322249,0.058828,0.315897,0.000000
0.062817,0.322249,0.064469,0.323150,0.000000
0.062762,0.322269,0.064469,0.322344,0.000000
0.062857,0.322218,0.062857,0.320733,0.000000
0.062751,0.322178,0.059634,0.322344,0.000000
0.062726,0.322183,0.064469,0.322344,0.000000
0.062772,0.322158,0.064469,0.322344,0.000000
0.062550,0.321810,0.054799,0.311868,0.000000
0.062495,0.321977,0.064469,0.327179,0.000000
0.062525,0.322108,0.064469,0.322344,0.000000
0.062676,0.322480,0.065275,0.318315,0.000000
0.062243,0.322344,0.064469,0.327179,0.000000
0.062419,0.322460,0.067692,0.322344,0.000000
0.062339,0.322541,0.063663,0.322344,0.000000
0.062590,0.322430,0.064469,0.315092,0.000000
0.062520,0.322450,0.066081,0.329597,0.000000
0.062666,0.322420,0.066081,0.322344,0.000000
0.062671,0.322606,0.064469,0.326374,0.000000
0.062545,0.322536,0.058022,0.324762,0.000000
0.062696,0.322712,0.064469,0.327985,0.000000
0.062636,0.322888,0.068498,0.322344,0.000000
0.062857,0.322888,0.063663,0.322344,0.000000
0.062787,0.322929,0.064469,0.322344,0.000000
0.062933,0.323155,0.068498,0.327985,0.000000
0.063008,0.323422,0.060440,0.327179,0.000000
0.063018,0.323447,0.064469,0.319927,0.000000
0.063044,0.323709,0.064469,0.330403,0.000000
0.063195,0.323875,0.064469,0.322344,0.000000
0.063326,0.324168,0.061245,0.323956,0.000000
0.063285,0.324163,0.062857,0.335238,0.000000
0.063421,0.324404,0.070110,0.324762,0.000000
0.063462,0.324616,0.070110,0.326374,0.000000
0.063638,0.324747,0.064469,0.322344,0.000000
0.063613,0.324908,0.064469,0.324762,0.000000
0.063779,0.325235,0.068498,0.327985,0.000000
0.063855,0.325543,0.064469,0.324762,0.000000
0.063719,0.325825,0.062051,0.318315,0.000000
0.063764,0.326233,0.067692,0.327985,0.000000
0.063769,0.326530,0.067692,0.332821,0.000000
0.064126,0.326958,0.064469,0.331209,0.000000
0.063935,0.327033,0.064469,0.326374,0.000000
0.064197,0.327346,0.073333,0.330403,0.000000
0.064278,0.327593,0.067692,0.327179,0.000000
0.064736,0.327623,0.065275,0.322344,0.000000
0.064721,0.327784,0.065275,0.323150,0.000000
0.064947,0.328046,0.066081,0.332821,0.000000
0.064968,0.328408,0.069304,0.329597,0.000000
0.064832,0.328388,0.060440,0.336044,0.000000
0.064877,0.328806,0.064469,0.329597,0.000000
0.064973,0.329179,0.064469,0.335238,0.000000
0.065204,0.329527,0.065275,0.331209,0.000000
0.065159,0.329748,0.071722,0.329597,0.000000
0.065461,0.330096,0.066886,0.332015,0.000000
0.065517,0.330408,0.065275,0.335238,0.000000
0.065532,0.330489,0.066081,0.325568,0.000000
0.065627,0.330856,0.065275,0.332821,0.000000
0.065733,0.330967,0.069304,0.325568,0.000000
0.065940,0.331385,0.064469,0.332015,0.000000
0.065859,0.331446,0.064469,0.336850,0.000000
0.066015,0.331788,0.068498,0.339267,0.000000
0.066166,0.332095,0.061245,0.330403,0.000000
0.066368,0.332418,0.065275,0.335238,0.000000
0.066297,0.332654,0.072527,0.331209,0.000000
0.066428,0.332982,0.070110,0.336850,0.000000
0.066499,0.333219,0.069304,0.326374,0.000000
0.066448,0.333385,0.065275,0.330403,0.000000
0.066499,0.333717,0.065275,0.337656,0.000000
0.066615,0.333989,0.072527,0.342491,0.000000
0.066912,0.334065,0.070110,0.329597,0.000000
0.066761,0.334070,0.052381,0.334432,0.000000
0.067028,0.334412,0.074945,0.336850,0.000000
0.067103,0.334674,0.068498,0.336044,0.000000
0.067390,0.334649,0.066886,0.323956,0.000000
0.067284,0.334755,0.068498,0.330403,0.000000
0.067451,0.334991,0.072527,0.344103,0.000000
0.067642,0.335364,0.066886,0.339267,0.000000
0.067541,0.335364,0.064469,0.333626,0.000000
0.067556,0.335717,0.065275,0.342491,0.000000
0.067768,0.335938,0.074945,0.339267,0.000000
0.067974,0.336371,0.064469,0.335238,0.000000
0.067954,0.336487,0.061245,0.337656,0.000000
0.068156,0.336674,0.077363,0.336044,0.000000
0.068236,0.336774,0.064469,0.330403,0.000000
0.068231,0.336759,0.067692,0.330403,0.000000
0.068277,0.336940,0.069304,0.337656,0.000000
0.068488,0.337187,0.069304,0.333626,0.000000
0.068599,0.337510,0.071722,0.336850,0.000000
0.068508,0.337474,0.059634,0.340879,0.000000
0.068715,0.337862,0.073333,0.340879,0.000000
0.068770,0.338094,0.073333,0.340879,0.000000
0.068952,0.338265,0.066081,0.336044,0.000000
0.068886,0.338421,0.064469,0.343297,0.000000
0.069007,0.338668,0.074139,0.342491,0.000000
0.069153,0.338940,0.069304,0.334432,0.000000
0.069108,0.339036,0.068498,0.331209,0.000000
0.069168,0.339308,0.071722,0.344103,0.000000
0.069279,0.339489,0.072527,0.340879,0.000000
0.069420,0.339766,0.070916,0.336044,0.000000
0.069480,0.339786,0.058828,0.344908,0.000000
0.069662,0.339993,0.076557,0.340879,0.000000
0.069752,0.340229,0.076557,0.337656,0.000000
0.070009,0.340214,0.068498,0.337656,0.000000
0.069919,0.340350,0.064469,0.342491,0.000000
0.070100,0.340577,0.072527,0.344103,0.000000
0.070226,0.340980,0.065275,0.340879,0.000000
0.070165,0.340824,0.066081,0.343297,0.000000
0.070281,0.341131,0.077363,0.344103,0.000000
0.070241,0.341363,0.069304,0.343297,0.000000
0.070432,0.341720,0.072527,0.340879,0.000000
0.070432,0.341771,0.074945,0.345714,0.000000
0.070488,0.341987,0.077363,0.340879,0.000000
0.070523,0.342113,0.069304,0.336850,0.000000
0.070503,0.342068,0.066886,0.327985,0.000000
0.070402,0.342063,0.067692,0.338462,0.000000
0.070422,0.341982,0.072527,0.338462,0.000000
0.070372,0.342027,0.064469,0.330403,0.000000
0.070115,0.341630,0.058828,0.316703,0.000000
0.070080,0.341388,0.067692,0.332821,0.000000
0.069924,0.341045,0.062857,0.319927,0.000000
0.069833,0.340617,0.064469,0.325568,0.000000
0.069440,0.339973,0.064469,0.319927,0.000000
0.069274,0.339343,0.066081,0.322344,0.000000
0.069022,0.338668,0.062857,0.318315,0.000000
0.068614,0.337807,0.059634,0.311868,0.000000
0.068156,0.337102,0.064469,0.324762,0.000000
0.067869,0.336135,0.063663,0.311062,0.000000
0.067692,0.335344,0.060440,0.309451,0.000000
0.067234,0.334321,0.048352,0.307033,0.000000
0.067053,0.333576,0.063663,0.311868,0.000000
0.066766,0.332544,0.062051,0.306227,0.000000
0.066328,0.331269,0.056410,0.301392,0.000000
0.065713,0.330237,0.062857,0.307839,0.000000
0.065310,0.329174,0.058828,0.305421,0.000000
0.064902,0.328247,0.052381,0.300586,0.000000
0.064293,0.327054,0.049963,0.294139,0.000000
0.063734,0.326021,0.059634,0.304615,0.000000
0.063225,0.324948,0.056410,0.305421,0.000000
0.062933,0.324127,0.060440,0.302198,0.000000
0.062344,0.322898,0.038681,0.302198,0.000000
0.062072,0.321810,0.057216,0.296557,0.000000
0.061608,0.320642,0.051575,0.305421,0.000000
0.061195,0.319292,0.055604,0.298169,0.000000
0.060702,0.318255,0.053993,0.309451,0.000000
0.060344,0.317167,0.062857,0.309451,0.000000
0.060032,0.316255,0.057216,0.307033,0.000000
0.059488,0.315248,0.051575,0.311062,0.000000
0.059175,0.314633,0.064469,0.309451,0.000000
0.058828,0.313671,0.053993,0.312674,0.000000
0.058576,0.312991,0.060440,0.301392,0.000000
0.058047,0.312080,0.059634,0.306227,0.000000
0.057911,0.311531,0.060440,0.311062,0.000000
0.057730,0.311032,0.057216,0.310256,0.000000
0.057423,0.310367,0.054799,0.302198,0.000000
0.057342,0.310115,0.058022,0.314286,0.000000
0.057297,0.309849,0.057216,0.305421,0.000000
0.057262,0.309637,0.056410,0.309451,0.000000
0.057181,0.309320,0.049158,0.309451,0.000000
0.057206,0.309370,0.062857,0.311868,0.000000
0.057156,0.309244,0.062857,0.306227,0.000000
0.057161,0.308992,0.056410,0.309451,0.000000
0.057035,0.308937,0.054799,0.305421,0.000000
0.057050,0.308997,0.062051,0.309451,0.000000
0.057146,0.309305,0.062051,0.309451,0.000000
0.057040,0.309294,0.051575,0.309451,0.000000
0.057136,0.309597,0.057216,0.318315,0.000000
0.057236,0.309889,0.056410,0.309451,0.000000
0.057483,0.310216,0.055604,0.311062,0.000000
0.057282,0.310282,0.061245,0.309451,0.000000
0.057564,0.310574,0.063663,0.311868,0.000000
0.057705,0.310831,0.064469,0.313480,0.000000
0.057891,0.310946,0.062857,0.306227,0.000000
0.057936,0.311168,0.063663,0.319927,0.000000
0.058224,0.311576,0.064469,0.317509,0.000000
0.058420,0.312060,0.056410,0.318315,0.000000
0.058355,0.312241,0.060440,0.298169,0.000000
0.058611,0.312734,0.065275,0.323150,0.000000
0.058783,0.313122,0.059634,0.311062,0.000000
0.059095,0.313480,0.056410,0.317509,0.000000
0.059070,0.313757,0.055604,0.319121,0.000000
0.059382,0.314341,0.063663,0.321538,0.000000
0.059594,0.314759,0.062857,0.315092,0.000000
0.059709,0.315202,0.062051,0.320733,0.000000
0.059835,0.315646,0.064469,0.324762,0.000000
0.060087,0.315963,0.064469,0.314286,0.000000
0.060384,0.316512,0.066886,0.322344,0.000000
0.060304,0.316713,0.061245,0.321538,0.000000
0.060591,0.317277,0.066081,0.322344,0.000000
0.060737,0.317756,0.059634,0.315092,0.000000
0.060974,0.318038,0.063663,0.319927,0.000000
0.060933,0.318245,0.061245,0.322344,0.000000
0.061155,0.318668,0.065275,0.320733,0.000000
0.061387,0.319171,0.060440,0.320733,0.000000
0.061316,0.319428,0.059634,0.319927,0.000000
0.061482,0.320027,0.053187,0.326374,0.000000
0.061638,0.320244,0.061245,0.316703,0.000000
0.061991,0.320587,0.064469,0.322344,0.000000
0.061956,0.320707,0.062857,0.322344,0.000000
0.062132,0.321040,0.064469,0.322344,0.000000
0.062278,0.321136,0.059634,0.320733,0.000000
0.062676,0.321261,0.063663,0.316703,0.000000
0.062681,0.321327,0.062051,0.322344,0.000000
0.062807,0.321564,0.065275,0.321538,0.000000
0.062857,0.321901,0.060440,0.319121,0.000000
0.062716,0.321977,0.058022,0.319927,0.000000
0.062751,0.322234,0.064469,0.323956,0.000000
0.062691,0.322415,0.062051,0.313480,0.000000
0.062968,0.322601,0.064469,0.322344,0.000000
0.062877,0.322611,0.058022,0.322344,0.000000
0.062958,0.322783,0.066886,0.320733,0.000000
0.063023,0.322873,0.064469,0.319121,0.000000
0.063144,0.322722,0.064469,0.316703,0.000000
0.063225,0.322813,0.064469,0.324762,0.000000
0.063290,0.322878,0.066081,0.323150,0.000000
0.063426,0.323019,0.062051,0.322344,0.000000
0.063235,0.323039,0.060440,0.325568,0.000000
0.063250,0.323206,0.064469,0.324762,0.000000
0.063240,0.323241,0.062051,0.319121,0.000000
0.063371,0.323251,0.061245,0.322344,0.000000
0.063200,0.323070,0.060440,0.322344,0.000000
0.063346,0.323110,0.062857,0.322344,0.000000
0.063316,0.323191,0.063663,0.325568,0.000000
0.063180,0.323065,0.057216,0.319121,0.000000
0.063175,0.323191,0.064469,0.322344,0.000000
0.063159,0.323160,0.064469,0.318315,0.000000
0.063361,0.323231,0.064469,0.319927,0.000000
0.063235,0.322994,0.070110,0.320733,0.000000
0.063401,0.323231,0.064469,0.322344,0.000000
0.063376,0.323296,0.064469,0.321538,0.000000
0.063497,0.323271,0.064469,0.311868,0.000000
0.063482,0.323271,0.063663,0.322344,0.000000
0.063522,0.323452,0.065275,0.326374,0.000000
0.063598,0.323694,0.062051,0.323150,0.000000
0.063391,0.323825,0.060440,0.314286,0.000000
0.063452,0.324107,0.071722,0.327985,0.000000
0.063426,0.324208,0.072527,0.326374,0.000000
0.063603,0.324319,0.065275,0.323956,0.000000
0.063537,0.324324,0.053993,0.324762,0.000000
0.063769,0.324535,0.064469,0.327179,0.000000
0.063809,0.324571,0.065275,0.324762,0.000000
0.063900,0.324505,0.064469,0.321538,0.000000
0.063945,0.324656,0.065275,0.322344,0.000000
0.064021,0.324858,0.066081,0.326374,0.000000
0.064101,0.325104,0.066081,0.324762,0.000000
0.063779,0.325175,0.062051,0.319927,0.000000
0.063895,0.325387,0.069304,0.327179,0.000000
0.063955,0.325487,0.064469,0.331209,0.000000
0.064157,0.325533,0.065275,0.323150,0.000000
0.064096,0.325810,0.064469,0.324762,0.000000
0.064333,0.326031,0.065275,0.328791,0.000000
0.064343,0.326233,0.064469,0.327985,0.000000
0.064323,0.326434,0.064469,0.327179,0.000000
0.064293,0.326762,0.063663,0.337656,0.000000
0.064434,0.327013,0.064469,0.319927,0.000000
0.064660,0.327331,0.062857,0.327985,0.000000
0.064610,0.327396,0.055604,0.327985,0.000000
0.064822,0.327774,0.070110,0.333626,0.000000
0.064852,0.328051,0.064469,0.324762,0.000000
0.064983,0.328046,0.065275,0.321538,0.000000
0.064902,0.328283,0.068498,0.329597,0.000000
0.065104,0.328504,0.070110,0.332015,0.000000
0.065109,0.328811,0.074139,0.330403,0.000000
0.065028,0.328816,0.062857,0.336044,0.000000
0.065169,0.329093,0.064469,0.333626,0.000000
0.065235,0.329270,0.065275,0.327179,0.000000
0.065507,0.329466,0.064469,0.327985,0.000000
0.065446,0.329577,0.058828,0.328791,0.000000
0.065708,0.329809,0.071722,0.332015,0.000000
0.065753,0.330106,0.065275,0.333626,0.000000
0.065819,0.330096,0.066886,0.327179,0.000000
0.065768,0.330292,0.064469,0.340073,0.000000
0.065904,0.330599,0.069304,0.322344,0.000000
0.065960,0.331002,0.066081,0.332821,0.000000
0.065804,0.331068,0.062857,0.323150,0.000000
0.065909,0.331390,0.068498,0.337656,0.000000
0.065935,0.331723,0.066886,0.340879,0.000000
0.066272,0.331899,0.064469,0.327179,0.000000
0.066277,0.332131,0.064469,0.336044,0.000000
0.066554,0.332503,0.071722,0.336850,0.000000
0.066610,0.332770,0.067692,0.325568,0.000000
0.066605,0.332760,0.064469,0.332821,0.000000
0.066645,0.333143,0.074139,0.340073,0.000000
0.066791,0.333349,0.070110,0.335238,0.000000
0.066977,0.333601,0.066886,0.331209,0.000000
0.066821,0.333657,0.069304,0.337656,0.000000
0.067038,0.334019,0.075751,0.336850,0.000000
0.067164,0.334352,0.064469,0.335238,0.000000
0.067375,0.334357,0.067692,0.330403,0.000000
0.067355,0.334533,0.070110,0.334432,0.000000
0.067572,0.334714,0.072527,0.336850,0.000000
0.067713,0.335218,0.073333,0.333626,0.000000
0.067652,0.335122,0.063663,0.321538,0.000000
0.067702,0.335419,0.076557,0.340879,0.000000
0.067778,0.335717,0.067692,0.337656,0.000000
0.068000,0.336099,0.071722,0.337656,0.000000
0.067934,0.336266,0.064469,0.339267,0.000000
0.068176,0.336568,0.073333,0.343297,0.000000
0.068272,0.336850,0.069304,0.332821,0.000000
0.068413,0.336830,0.069304,0.330403,0.000000
0.068458,0.337132,0.070916,0.343297,0.000000
0.068690,0.337328,0.070110,0.331209,0.000000
0.068896,0.337716,0.077363,0.336850,0.000000
0.068851,0.337847,0.064469,0.326374,0.000000
0.069022,0.338159,0.076557,0.344103,0.000000
0.069083,0.338300,0.074945,0.340073,0.000000
0.069339,0.338512,0.071722,0.339267,0.000000
0.069294,0.338653,0.067692,0.345714,0.000000
0.069546,0.338925,0.076557,0.344908,0.000000
0.069616,0.339141,0.068498,0.348132,0.000000
0.069526,0.339227,0.071722,0.333626,0.000000
0.069526,0.339499,0.066081,0.344908,0.000000
0.069677,0.339650,0.070916,0.344103,0.000000
0.069964,0.339993,0.075751,0.344908,0.000000
0.069747,0.340038,0.068498,0.337656,0.000000
0.069979,0.340411,0.075751,0.344103,0.000000
0.070024,0.340678,0.072527,0.342491,0.000000
0.070397,0.340683,0.071722,0.339267,0.000000
0.070362,0.340819,0.074945,0.348132,0.000000
0.070583,0.341015,0.076557,0.341685,0.000000
0.070573,0.341428,0.070110,0.347326,0.000000
0.070488,0.341438,0.064469,0.324762,0.000000
0.070548,0.341700,0.074139,0.348132,0.000000
0.070583,0.341730,0.068498,0.344103,0.000000
0.070730,0.342028,0.068498,0.339267,0.000000
0.070518,0.342103,0.051575,0.340073,0.000000
0.070735,0.342164,0.073333,0.336850,0.000000
0.070664,0.342113,0.071722,0.336850,0.000000
0.070654,0.341871,0.068498,0.329597,0.000000
0.070442,0.341756,0.069304,0.327985,0.000000
0.070412,0.341544,0.066886,0.329597,0.000000
0.070261,0.341312,0.065275,0.330403,0.000000
0.069964,0.340844,0.056410,0.327985,0.000000
0.069808,0.340577,0.064469,0.327179,0.000000
0.069591,0.340083,0.064469,0.327179,0.000000
0.069571,0.339555,0.058828,0.322344,0.000000
0.069244,0.338860,0.055604,0.318315,0.000000
0.069113,0.338346,0.063663,0.322344,0.000000
0.068816,0.337626,0.055604,0.322344,0.000000
0.068408,0.336598,0.057216,0.310256,0.000000
0.067924,0.335838,0.053993,0.314286,0.000000
0.067677,0.335022,0.060440,0.314286,0.000000
0.067456,0.334115,0.059634,0.309451,0.000000
0.066861,0.333047,0.055604,0.309451,0.000000
0.066670,0.332287,0.063663,0.309451,0.000000
0.066121,0.331204,0.060440,0.305421,0.000000
0.065920,0.330050,0.055604,0.304615,0.000000
0.065360,0.328978,0.054799,0.311868,0.000000
0.065099,0.328011,0.062857,0.311868,0.000000
0.064660,0.327099,0.055604,0.309451,0.000000
0.064021,0.325789,0.051575,0.307839,0.000000
0.063442,0.324923,0.062857,0.311868,0.000000
0.063109,0.323835,0.060440,0.305421,0.000000
0.062827,0.322949,0.056410,0.309451,0.000000
0.062072,0.321831,0.053187,0.311062,0.000000
0.061845,0.320974,0.059634,0.310256,0.000000
0.061533,0.320007,0.056410,0.309451,0.000000
0.061346,0.318839,0.061245,0.304615,0.000000
0.060948,0.318068,0.058022,0.310256,0.000000
0.060762,0.317167,0.062857,0.307839,0.000000
0.060445,0.316436,0.054799,0.309451,0.000000
0.059976,0.315510,0.053187,0.305421,0.000000
0.059840,0.314951,0.059634,0.316703,0.000000
0.059594,0.314447,0.062051,0.313480,0.000000
0.059498,0.313953,0.057216,0.309451,0.000000
0.059342,0.313550,0.056410,0.315092,0.000000
0.059301,0.313379,0.064469,0.311062,0.000000
0.059181,0.313127,0.060440,0.317509,0.000000
0.058878,0.312775,0.059634,0.307839,0.000000
0.058652,0.312664,0.053187,0.311062,0.000000
0.058737,0.312719,0.062857,0.310256,0.000000
0.058813,0.312891,0.055604,0.317509,0.000000
0.058672,0.312790,0.057216,0.313480,0.000000
0.058773,0.312956,0.066081,0.318315,0.000000
0.058873,0.313178,0.060440,0.312674,0.000000
0.059050,0.313122,0.060440,0.310256,0.000000
0.058964,0.313163,0.058828,0.315092,0.000000
0.059206,0.313545,0.064469,0.320733,0.000000
0.059286,0.314024,0.063663,0.313480,0.000000
0.059160,0.314019,0.053993,0.310256,0.000000
0.059191,0.314336,0.064469,0.323956,0.000000
0.059407,0.314749,0.062857,0.310256,0.000000
0.059750,0.315273,0.064469,0.318315,0.000000
0.059830,0.315479,0.047546,0.313480,0.000000
0.060062,0.315953,0.066081,0.322344,0.000000
0.060258,0.316310,0.062051,0.318315,0.000000
0.060681,0.316552,0.062857,0.314286,0.000000
0.060727,0.316920,0.063663,0.324762,0.000000
0.060918,0.317373,0.065275,0.322344,0.000000
0.061155,0.317897,0.068498,0.319927,0.000000
0.061054,0.318149,0.057216,0.309451,0.000000
0.061251,0.318829,0.068498,0.325568,0.000000
0.061407,0.319247,0.061245,0.323150,0.000000
0.061729,0.319756,0.064469,0.327985,0.000000
0.061724,0.320083,0.058828,0.324762,0.000000
0.062011,0.320561,0.064469,0.327985,0.000000
0.062177,0.320979,0.066886,0.326374,0.000000
0.062137,0.321151,0.064469,0.314286,0.000000
0.062152,0.321493,0.066081,0.322344,0.000000
0.062374,0.321816,0.065275,0.329597,0.000000
0.062656,0.322229,0.065275,0.322344,0.000000
0.062752,0.322541,0.060440,0.322344,0.000000
0.062888,0.322868,0.069304,0.327179,0.000000
0.063079,0.323145,0.070916,0.325568,0.000000
0.063376,0.323327,0.064469,0.322344,0.000000
0.063371,0.323563,0.062051,0.322344,0.000000
0.063492,0.323805,0.064469,0.327985,0.000000
0.063628,0.324188,0.064469,0.323956,0.000000
0.063542,0.324233,0.053187,0.316703,0.000000
0.063588,0.324490,0.064469,0.329597,0.000000
0.063714,0.324540,0.064469,0.319927,0.000000
0.064021,0.324903,0.063663,0.322344,0.000000
0.063895,0.324888,0.066886,0.322344,0.000000
0.063991,0.325054,0.068498,0.327985,0.000000
0.063965,0.325089,0.056410,0.320733,0.000000
0.064101,0.324974,0.062857,0.313480,0.000000
0.064041,0.324943,0.069304,0.319927,0.000000
0.064086,0.324943,0.066081,0.322344,0.000000
0.064061,0.325054,0.064469,0.322344,0.000000
0.063829,0.324999,0.060440,0.307033,0.000000
0.063875,0.325064,0.069304,0.322344,0.000000
0.063824,0.325130,0.065275,0.322344,0.000000
0.063996,0.325034,0.064469,0.318315,0.000000
0.063875,0.324878,0.063663,0.323150,0.000000
0.064021,0.325019,0.066081,0.323150,0.000000
0.064001,0.324999,0.064469,0.317509,0.000000
0.064031,0.324747,0.063663,0.315092,0.000000
0.064036,0.324742,0.064469,0.330403,0.000000
0.064061,0.324631,0.064469,0.327179,0.000000
0.064137,0.324686,0.060440,0.326374,0.000000
0.064046,0.324445,0.062051,0.322344,0.000000
0.064071,0.324561,0.065275,0.327179,0.000000
0.064116,0.324561,0.060440,0.324762,0.000000
0.064207,0.324364,0.063663,0.323956,0.000000
0.064086,0.324273,0.066886,0.330403,0.000000
0.064132,0.324409,0.068498,0.322344,0.000000
0.064172,0.324475,0.064469,0.322344,0.000000
0.064001,0.324289,0.055604,0.317509,0.000000
0.064001,0.324475,0.063663,0.327179,0.000000
0.064011,0.324490,0.066081,0.327985,0.000000
0.064197,0.324691,0.062857,0.322344,0.000000
0.063970,0.324581,0.051575,0.324762,0.000000
0.064091,0.324722,0.070110,0.327179,0.000000
0.064111,0.324868,0.057216,0.323956,0.000000
0.064288,0.324863,0.064469,0.319927,0.000000
0.064227,0.324989,0.064469,0.321538,0.000000
0.064373,0.325135,0.064469,0.324762,0.000000
0.064358,0.325432,0.066886,0.321538,0.000000
0.064268,0.325613,0.062857,0.336044,0.000000
0.064333,0.325996,0.067692,0.331209,0.000000
0.064404,0.326253,0.064469,0.330403,0.000000
0.064635,0.326409,0.064469,0.326374,0.000000
0.064600,0.326545,0.074945,0.325568,0.000000
0.064811,0.326822,0.066886,0.336044,0.000000
0.064882,0.327139,0.068498,0.323956,0.000000
0.064927,0.327190,0.064469,0.322344,0.000000
0.064882,0.327426,0.071722,0.323956,0.000000
0.065038,0.327618,0.068498,0.322344,0.000000
0.065028,0.328066,0.063663,0.326374,0.000000
0.064922,0.328187,0.059634,0.334432,0.000000
0.065124,0.328600,0.074945,0.334432,0.000000
0.065159,0.328872,0.062857,0.327179,0.000000
0.065315,0.329169,0.064469,0.326374,0.000000
0.065245,0.329345,0.062051,0.332015,0.000000
0.065345,0.329688,0.066886,0.332015,0.000000
0.065431,0.330055,0.064469,0.333626,0.000000
0.065411,0.329990,0.066081,0.327985,0.000000
0.065527,0.330272,0.071722,0.338462,0.000000
0.065527,0.330579,0.070916,0.334432,0.000000
0.065743,0.331002,0.064469,0.332015,0.000000
0.065874,0.331063,0.073333,0.332821,0.000000
0.066166,0.331466,0.072527,0.336044,0.000000
0.066232,0.331733,0.063663,0.331209,0.000000
0.066499,0.331793,0.065275,0.323956,0.000000
0.066494,0.332035,0.072527,0.336044,0.000000
0.066655,0.332171,0.071722,0.334432,0.000000
0.066695,0.332569,0.078974,0.332821,0.000000
0.066615,0.332790,0.064469,0.317509,0.000000
0.066776,0.333208,0.075751,0.337656,0.000000
0.066876,0.333455,0.066886,0.340073,0.000000
0.067053,0.333647,0.072527,0.332015,0.000000
0.067088,0.333742,0.069304,0.336850,0.000000
0.067279,0.334034,0.074139,0.335238,0.000000
0.067350,0.334256,0.070110,0.331209,0.000000
0.067410,0.334231,0.064469,0.329597,0.000000
0.067305,0.334483,0.073333,0.330403,0.000000
0.067511,0.334563,0.073333,0.336850,0.000000
0.067637,0.334906,0.071722,0.323956,0.000000
0.067677,0.334951,0.065275,0.322344,0.000000
0.067879,0.335354,0.075751,0.344908,0.000000
0.067990,0.335616,0.074139,0.327985,0.000000
0.068191,0.335817,0.066886,0.336044,0.000000
0.068110,0.336044,0.068498,0.334432,0.000000
0.068367,0.336311,0.073333,0.342491,0.000000
0.068468,0.336704,0.069304,0.332821,0.000000
0.068458,0.336623,0.066886,0.330403,0.000000
0.068584,0.336895,0.075751,0.344103,0.000000
0.068705,0.337046,0.071722,0.330403,0.000000
0.068906,0.337530,0.075751,0.336850,0.000000
0.068806,0.337580,0.068498,0.334432,0.000000
0.069083,0.337877,0.074945,0.339267,0.000000
0.069088,0.337988,0.068498,0.334432,0.000000
0.069072,0.337933,0.071722,0.332821,0.000000
0.069017,0.337963,0.066081,0.336850,0.000000
0.069249,0.338285,0.072527,0.344103,0.000000
0.069360,0.338658,0.069304,0.334432,0.000000
0.069254,0.338663,0.064469,0.333626,0.000000
0.069375,0.339121,0.074945,0.346520,0.000000
0.069435,0.339338,0.066886,0.340879,0.000000
0.069672,0.339403,0.070110,0.340879,0.000000
0.069626,0.339454,0.078974,0.345714,0.000000
0.069904,0.339701,0.075751,0.344103,0.000000
0.070029,0.339912,0.067692,0.328791,0.000000
0.070110,0.339932,0.070110,0.335238,0.000000
0.070181,0.340129,0.073333,0.336850,0.000000
0.070442,0.340421,0.074945,0.346520,0.000000
0.070674,0.340849,0.072527,0.339267,0.000000
0.070634,0.340768,0.064469,0.336044,0.000000
0.070745,0.341151,0.075751,0.348132,0.000000
0.070855,0.341317,0.067692,0.348132,0.000000
0.070981,0.341539,0.070110,0.340879,0.000000
0.070860,0.341463,0.070916,0.343297,0.000000
0.071062,0.341620,0.077363,0.337656,0.000000
0.071052,0.341771,0.067692,0.345714,0.000000
0.070941,0.341559,0.066886,0.327985,0.000000
0.070936,0.341655,0.066081,0.340073,0.000000
0.070981,0.341368,0.071722,0.342491,0.000000
0.071022,0.341398,0.066886,0.331209,0.000000
0.070533,0.341111,0.064469,0.329597,0.000000
0.070523,0.340869,0.072527,0.327985,0.000000
0.070342,0.340431,0.066886,0.323956,0.000000
0.070296,0.339847,0.062857,0.322344,0.000000
0.069979,0.339348,0.062857,0.327985,0.000000
0.069949,0.338869,0.065275,0.324762,0.000000
0.069783,0.338537,0.062051,0.320733,0.000000
0.069294,0.337741,0.055604,0.298169,0.000000
0.068972,0.337071,0.066886,0.319927,0.000000
0.068750,0.336286,0.060440,0.315092,0.000000
0.068624,0.335586,0.060440,0.312674,0.000000
0.068080,0.334558,0.051575,0.309451,0.000000
0.067959,0.333636,0.064469,0.314286,0.000000
0.067546,0.332664,0.057216,0.311868,0.000000
0.067154,0.331511,0.056410,0.298974,0.000000
0.066660,0.330463,0.060440,0.312674,0.000000
0.066358,0.329391,0.059634,0.304615,0.000000
0.065915,0.328434,0.062857,0.303004,0.000000
0.065371,0.327089,0.052381,0.298169,0.000000
0.064963,0.326061,0.059634,0.310256,0.000000
0.064404,0.324903,0.060440,0.304615,0.000000
0.064121,0.323916,0.056410,0.304615,0.000000
0.063603,0.322682,0.051575,0.307839,0.000000
0.063285,0.321685,0.061245,0.309451,0.000000
0.062812,0.320582,0.055604,0.304615,0.000000
0.062268,0.319398,0.053187,0.298974,0.000000
0.061805,0.318350,0.062051,0.310256,0.000000
0.061518,0.317267,0.058828,0.296557,0.000000
0.061241,0.316411,0.060440,0.307033,0.000000
0.060566,0.315278,0.053993,0.309451,0.000000
0.060339,0.314608,0.064469,0.309451,0.000000
0.060072,0.313873,0.064469,0.301392,0.000000
0.060112,0.312931,0.058828,0.305421,0.000000
0.059805,0.312186,0.062857,0.314286,0.000000
0.059719,0.311727,0.064469,0.309451,0.000000
0.059553,0.311410,0.059634,0.309451,0.000000
0.059175,0.310876,0.051575,0.292527,0.000000
0.058944,0.310705,0.055604,0.314286,0.000000
0.058742,0.310367,0.062051,0.319927,0.000000
0.058742,0.310302,0.059634,0.313480,0.000000
0.058576,0.310020,0.056410,0.310256,0.000000
0.058566,0.310005,0.063663,0.313480,0.000000
0.058586,0.310050,0.053993,0.307033,0.000000
0.058657,0.309859,0.062857,0.304615,0.000000
0.058601,0.309954,0.060440,0.316703,0.000000
0.058742,0.310136,0.060440,0.310256,0.000000
0.058737,0.310423,0.054799,0.311868,0.000000
0.058627,0.310322,0.052381,0.297363,0.000000
0.058702,0.310669,0.065275,0.315092,0.000000
0.058768,0.310881,0.047546,0.315092,0.000000
0.058979,0.311208,0.056410,0.310256,0.000000
0.058904,0.311465,0.052381,0.319927,0.000000
0.059140,0.311833,0.064469,0.312674,0.000000
0.059322,0.312145,0.061245,0.317509,0.000000
0.059281,0.312387,0.063663,0.309451,0.000000
0.059327,0.312719,0.062051,0.318315,0.000000
0.059634,0.313037,0.062857,0.315092,0.000000
0.059815,0.313621,0.057216,0.318315,0.000000
0.059871,0.313908,0.057216,0.319121,0.000000
0.060072,0.314442,0.066886,0.322344,0.000000
0.060253,0.314820,0.066886,0.320733,0.000000
0.060616,0.315142,0.062051,0.316703,0.000000
0.060621,0.315439,0.065275,0.322344,0.000000
0.060858,0.315862,0.064469,0.323150,0.000000
0.061049,0.316356,0.062051,0.318315,0.000000
0.061064,0.316734,0.058828,0.320733,0.000000
0.061130,0.317252,0.066886,0.322344,0.000000
0.061220,0.317620,0.064469,0.322344,0.000000
0.061553,0.317963,0.064469,0.322344,0.000000
0.061684,0.318088,0.066081,0.330403,0.000000
0.061936,0.318537,0.068498,0.326374,0.000000
0.062132,0.318884,0.056410,0.322344,0.000000
0.062258,0.319050,0.062051,0.311062,0.000000
0.062288,0.319388,0.064469,0.327985,0.000000
0.062414,0.319615,0.064469,0.318315,0.000000
0.062610,0.320058,0.059634,0.319927,0.000000
0.062540,0.319987,0.060440,0.313480,0.000000
0.062661,0.320355,0.064469,0.326374,0.000000
0.062827,0.320597,0.060440,0.318315,0.000000
0.063064,0.321055,0.063663,0.320733,0.000000
0.063044,0.321151,0.063663,0.318315,0.000000
0.063235,0.321403,0.065275,0.322344,0.000000
0.063285,0.321639,0.062857,0.322344,0.000000
0.063295,0.321604,0.062857,0.310256,0.000000
0.063190,0.321760,0.064469,0.322344,0.000000
0.063255,0.321765,0.066081,0.319927,0.000000
0.063426,0.321926,0.063663,0.318315,0.000000
0.063114,0.321916,0.062051,0.322344,0.000000
0.063195,0.322093,0.065275,0.323956,0.000000
0.063356,0.322128,0.062051,0.317509,0.000000
0.063452,0.322022,0.063663,0.319121,0.000000
0.063406,0.322042,0.062857,0.323956,0.000000
0.063467,0.322153,0.066081,0.322344,0.000000
0.063512,0.322284,0.059634,0.316703,0.000000
0.063306,0.322249,0.055604,0.319927,0.000000
0.063280,0.322344,0.055604,0.325568,0.000000
0.063245,0.322385,0.062051,0.314286,0.000000
0.063351,0.322425,0.064469,0.318315,0.000000
0.063175,0.322279,0.060440,0.308645,0.000000
0.063270,0.322299,0.066081,0.323150,0.000000
0.063225,0.322188,0.063663,0.320733,0.000000
0.063220,0.321967,0.059634,0.311062,0.000000
0.063144,0.321856,0.064469,0.319927,0.000000
0.063195,0.321800,0.064469,0.318315,0.000000
0.063235,0.321901,0.063663,0.319927,0.000000
0.063149,0.321780,0.055604,0.307033,0.000000
0.063159,0.321815,0.064469,0.327179,0.000000
0.062998,0.321795,0.056410,0.319927,0.000000
0.063104,0.322047,0.064469,0.320733,0.000000
0.062993,0.321951,0.064469,0.322344,0.000000
0.063044,0.322027,0.066081,0.324762,0.000000
0.063034,0.322103,0.063663,0.324762,0.000000
0.063059,0.322017,0.063663,0.316703,0.000000
0.062978,0.322168,0.063663,0.323150,0.000000
0.063064,0.322208,0.064469,0.325568,0.000000
0.063149,0.322329,0.072527,0.322344,0.000000
0.063099,0.322284,0.053993,0.322344,0.000000
0.063175,0.322626,0.068498,0.323150,0.000000
0.063215,0.322717,0.064469,0.321538,0.000000
0.063537,0.322778,0.063663,0.320733,0.000000
0.063406,0.322939,0.062051,0.322344,0.000000
0.063452,0.323155,0.065275,0.327985,0.000000
0.063396,0.323442,0.064469,0.323150,0.000000
0.063190,0.323357,0.058022,0.312674,0.000000
0.063210,0.323573,0.070110,0.332015,0.000000
0.063190,0.323694,0.066886,0.321538,0.000000
0.063431,0.323881,0.064469,0.323956,0.000000
0.063421,0.324032,0.055604,0.318315,0.000000
0.063608,0.324339,0.069304,0.322344,0.000000
0.063623,0.324440,0.069304,0.322344,0.000000
0.063839,0.324435,0.064469,0.319927,0.000000
0.063865,0.324692,0.064469,0.331209,0.000000
0.064066,0.324984,0.068498,0.322344,0.000000
0.064192,0.325321,0.059634,0.322344,0.000000
0.064106,0.325578,0.059634,0.319121,0.000000
0.064192,0.325971,0.067692,0.336044,0.000000
0.064338,0.326208,0.062857,0.320733,0.000000
0.064434,0.326404,0.064469,0.326374,0.000000
0.064444,0.326570,0.059634,0.323150,0.000000
0.064726,0.326862,0.068498,0.332015,0.000000
0.064801,0.327023,0.064469,0.332821,0.000000
0.064872,0.326998,0.064469,0.318315,0.000000
0.064983,0.327306,0.064469,0.323956,0.000000
0.065164,0.327462,0.070916,0.319121,0.000000
0.065240,0.327804,0.071722,0.323956,0.000000
0.065214,0.327829,0.064469,0.322344,0.000000
0.065366,0.328217,0.068498,0.329597,0.000000
0.065507,0.328484,0.068498,0.332821,0.000000
0.065693,0.328645,0.064469,0.327179,0.000000
0.065663,0.328811,0.070110,0.332821,0.000000
0.065834,0.329129,0.068498,0.332821,0.000000
0.065894,0.329355,0.063663,0.332015,0.000000
0.065809,0.329376,0.064469,0.322344,0.000000
0.065920,0.329663,0.072527,0.332821,0.000000
0.066030,0.329854,0.071722,0.327179,0.000000
0.066322,0.330171,0.065275,0.330403,0.000000
0.066282,0.330212,0.071722,0.323150,0.000000
0.066504,0.330539,0.068498,0.336044,0.000000
0.066569,0.330756,0.063663,0.330403,0.000000
0.066650,0.330640,0.066081,0.327179,0.000000
0.066635,0.330781,0.071722,0.332821,0.000000
0.066846,0.331038,0.067692,0.331209,0.000000
0.066912,0.331380,0.064469,0.332821,0.000000
0.066851,0.331420,0.064469,0.314286,0.000000
0.066897,0.331889,0.071722,0.339267,0.000000
0.067023,0.332156,0.068498,0.326374,0.000000
0.067249,0.332267,0.068498,0.331209,0.000000
0.067164,0.332403,0.075751,0.332821,0.000000
0.067284,0.332669,0.072527,0.334432,0.000000
0.067441,0.333017,0.070110,0.327985,0.000000
0.067501,0.333067,0.066886,0.332821,0.000000
0.067546,0.333380,0.069304,0.329597,0.000000
0.067753,0.333747,0.071722,0.324762,0.000000
0.067844,0.334135,0.066886,0.332821,0.000000
0.067713,0.334191,0.063663,0.334432,0.000000
0.067793,0.334508,0.076557,0.338462,0.000000
0.067939,0.334614,0.060440,0.327179,0.000000
0.068136,0.334860,0.067692,0.334432,0.000000
0.068121,0.334810,0.064469,0.336044,0.000000
0.068221,0.335017,0.073333,0.337656,0.000000
0.068277,0.335243,0.072527,0.336850,0.000000
0.068201,0.335268,0.064469,0.335238,0.000000
0.068216,0.335571,0.076557,0.339267,0.000000
0.068277,0.335792,0.073333,0.344103,0.000000
0.068458,0.336064,0.070916,0.334432,0.000000
0.068337,0.336084,0.066886,0.332821,0.000000
0.068579,0.336326,0.070110,0.337656,0.000000
0.068710,0.336472,0.064469,0.337656,0.000000
0.068826,0.336492,0.068498,0.329597,0.000000
0.068876,0.336608,0.073333,0.340879,0.000000
0.069062,0.336810,0.074945,0.344103,0.000000
0.069193,0.337212,0.064469,0.342491,0.000000
0.069062,0.337162,0.064469,0.342491,0.000000
0.069168,0.337585,0.065275,0.347326,0.000000
0.069284,0.337862,0.069304,0.336850,0.000000
0.069455,0.338049,0.066886,0.336850,0.000000
0.069531,0.338008,0.078168,0.333626,0.000000
0.069652,0.338260,0.071722,0.343297,0.000000
0.069632,0.338396,0.073333,0.334432,0.000000
0.069717,0.338180,0.066081,0.327985,0.000000
0.069601,0.338169,0.070110,0.337656,0.000000
0.069591,0.338064,0.071722,0.324762,0.000000
0.069556,0.338054,0.066886,0.327179,0.000000
0.069319,0.337696,0.056410,0.311062,0.000000
0.069234,0.337495,0.074139,0.327985,0.000000
0.069168,0.337223,0.059634,0.322344,0.000000
0.069153,0.336774,0.064469,0.322344,0.000000
0.068846,0.336210,0.063663,0.322344,0.000000
0.068634,0.335878,0.064469,0.319121,0.000000
0.068438,0.335248,0.064469,0.322344,0.000000
0.067934,0.334538,0.059634,0.309451,0.000000
0.067672,0.333999,0.064469,0.317509,0.000000
0.067446,0.333294,0.064469,0.313480,0.000000
0.067350,0.332569,0.062051,0.311062,0.000000
0.066937,0.331566,0.051575,0.311868,0.000000
0.066816,0.330826,0.066081,0.311868,0.000000
0.066610,0.329919,0.062051,0.309451,0.000000
0.066363,0.328751,0.057216,0.300586,0.000000
0.065879,0.327764,0.053993,0.309451,0.000000
0.065582,0.326837,0.059634,0.309451,0.000000
0.065265,0.326021,0.056410,0.306227,0.000000
0.064595,0.324958,0.051575,0.302198,0.000000
0.064157,0.324062,0.059634,0.306227,0.000000
0.063638,0.322984,0.059634,0.302198,0.000000
0.063361,0.322032,0.057216,0.298974,0.000000
0.062746,0.320768,0.051575,0.307033,0.000000
0.062469,0.319700,0.059634,0.307839,0.000000
0.062056,0.318748,0.050769,0.296557,0.000000
0.061512,0.317409,0.053187,0.296557,0.000000
0.061004,0.316341,0.059634,0.309451,0.000000
0.060812,0.315248,0.059634,0.305421,0.000000
0.060455,0.314402,0.051575,0.305421,0.000000
0.059906,0.313324,0.052381,0.300586,0.000000
0.059689,0.312523,0.057216,0.309451,0.000000
0.059407,0.311702,0.049158,0.307839,0.000000
0.059181,0.310876,0.053993,0.302198,0.000000
0.058788,0.310050,0.060440,0.307033,0.000000
0.058677,0.309481,0.058828,0.307033,0.000000
0.058400,0.308836,0.053993,0.307839,0.000000
0.058072,0.308196,0.053993,0.297363,0.000000
0.057816,0.307768,0.062051,0.309451,0.000000
0.057725,0.307406,0.056410,0.307033,0.000000
0.057821,0.307295,0.053993,0.307033,0.000000
0.057387,0.306816,0.053993,0.300586,0.000000
0.057508,0.306701,0.064469,0.309451,0.000000
0.057423,0.306544,0.057216,0.307839,0.000000
0.057418,0.306187,0.055604,0.298974,0.000000
0.057282,0.305970,0.053993,0.311062,0.000000
0.057312,0.305900,0.058828,0.304615,0.000000
0.057246,0.306142,0.058828,0.311062,0.000000
0.057050,0.305935,0.049963,0.300586,0.000000
0.056954,0.306121,0.060440,0.315092,0.000000
0.056838,0.306157,0.059634,0.307839,0.000000
0.057075,0.306252,0.053993,0.306227,0.000000
0.056904,0.306222,0.049158,0.310256,0.000000
0.057161,0.306419,0.062857,0.309451,0.000000
0.057251,0.306675,0.058828,0.308645,0.000000
0.057322,0.306736,0.060440,0.304615,0.000000
0.057292,0.306947,0.062051,0.312674,0.000000
0.057483,0.307149,0.063663,0.310256,0.000000
0.057690,0.307612,0.063663,0.309451,0.000000
0.057599,0.307718,0.051575,0.319121,0.000000
0.057690,0.308201,0.065275,0.318315,0.000000
0.057831,0.308559,0.064469,0.309451,0.000000
0.058098,0.308927,0.061245,0.311062,0.000000
0.058067,0.309209,0.053993,0.316703,0.000000
0.058244,0.309672,0.063663,0.320733,0.000000
0.058420,0.310050,0.062857,0.309451,0.000000
0.058405,0.310216,0.059634,0.308645,0.000000
0.058485,0.310604,0.066886,0.315092,0.000000
0.058732,0.311032,0.064469,0.323150,0.000000
0.059060,0.311541,0.064469,0.317509,0.000000
0.059160,0.311747,0.058022,0.309451,0.000000
0.059387,0.312246,0.065275,0.319121,0.000000
0.059427,0.312533,0.064469,0.319121,0.000000
0.059850,0.312775,0.059634,0.315092,0.000000
0.059815,0.312986,0.055604,0.318315,0.000000
0.060012,0.313374,0.064469,0.318315,0.000000
0.060183,0.313953,0.060440,0.314286,0.000000
0.060047,0.314049,0.053187,0.320733,0.000000
0.060102,0.314497,0.064469,0.322344,0.000000
0.060304,0.314689,0.060440,0.320733,0.000000
0.060566,0.315157,0.062857,0.313480,0.000000
0.060480,0.315354,0.051575,0.310256,0.000000
0.060853,0.315736,0.066081,0.318315,0.000000
0.060943,0.316059,0.058828,0.319927,0.000000
0.061200,0.316084,0.061245,0.309451,0.000000
0.061185,0.316366,0.064469,0.310256,0.000000
0.061341,0.316381,0.064469,0.310256,0.000000
0.061558,0.316623,0.062857,0.313480,0.000000
0.061382,0.316582,0.054799,0.302198,0.000000
0.061417,0.316779,0.064469,0.319927,0.000000
0.061437,0.316880,0.057216,0.310256,0.000000
0.061598,0.317051,0.060440,0.310256,0.000000
0.061492,0.317011,0.060440,0.315897,0.000000
0.061633,0.317101,0.062857,0.314286,0.000000
0.061684,0.317091,0.059634,0.313480,0.000000
0.061558,0.316774,0.057216,0.307839,0.000000
0.061518,0.316844,0.064469,0.316703,0.000000
0.061613,0.316789,0.063663,0.307839,0.000000
0.061840,0.316960,0.064469,0.317509,0.000000
0.061502,0.316839,0.053187,0.311868,0.000000
0.061618,0.317016,0.064469,0.318315,0.000000
0.061543,0.316965,0.064469,0.314286,0.000000
0.061623,0.316819,0.060440,0.313480,0.000000
0.061482,0.316784,0.063663,0.311868,0.000000
0.061623,0.316864,0.062857,0.314286,0.000000
0.061643,0.316950,0.061245,0.309451,0.000000
0.061407,0.316900,0.059634,0.317509,0.000000
0.061407,0.317021,0.062051,0.320733,0.000000
0.061402,0.317026,0.064469,0.313480,0.000000
0.061633,0.317293,0.063663,0.315092,0.000000
0.061397,0.317267,0.067692,0.322344,0.000000
0.061507,0.317408,0.068498,0.319927,0.000000
0.061543,0.317424,0.068498,0.318315,0.000000
0.061734,0.317202,0.062051,0.311062,0.000000
0.061628,0.317131,0.064469,0.319927,0.000000
0.061704,0.317131,0.064469,0.311062,0.000000
0.061810,0.317338,0.058022,0.317509,0.000000
0.061694,0.317278,0.053993,0.311868,0.000000
0.061769,0.317625,0.062051,0.322344,0.000000
0.061674,0.317771,0.052381,0.321538,0.000000
0.061946,0.317942,0.061245,0.317509,0.000000
0.061931,0.317942,0.051575,0.319927,0.000000
0.062092,0.318093,0.064469,0.319927,0.000000
0.062187,0.318245,0.060440,0.319927,0.000000
0.062182,0.318204,0.062051,0.314286,0.000000
0.062122,0.318350,0.063663,0.322344,0.000000
0.062238,0.318552,0.064469,0.318315,0.000000
0.062449,0.318950,0.064469,0.317509,0.000000
0.062389,0.318884,0.053993,0.322344,0.000000
0.062480,0.319207,0.065275,0.323956,0.000000
0.062344,0.319373,0.063663,0.319927,0.000000
0.062666,0.319378,0.065275,0.321538,0.000000
0.062585,0.319504,0.064469,0.324762,0.000000
0.062772,0.319766,0.066886,0.322344,0.000000
0.062832,0.320164,0.064469,0.317509,0.000000
0.062736,0.320018,0.056410,0.314286,0.000000
0.062837,0.320320,0.066081,0.322344,0.000000
0.062827,0.320597,0.065275,0.322344,0.000000
0.063104,0.320854,0.064469,0.323956,0.000000
0.062872,0.320833,0.049963,0.322344,0.000000
0.063064,0.321080,0.068498,0.326374,0.000000
0.063094,0.321191,0.064469,0.322344,0.000000
0.063366,0.321156,0.064469,0.315092,0.000000
0.063316,0.321403,0.064469,0.322344,0.000000
0.063477,0.321599,0.067692,0.322344,0.000000
0.063532,0.321941,0.070110,0.319121,0.000000
0.063426,0.322077,0.060440,0.322344,0.000000
0.063542,0.322415,0.069304,0.329597,0.000000
0.063462,0.322601,0.064469,0.326374,0.000000
0.063658,0.322752,0.059634,0.324762,0.000000
0.063547,0.322853,0.058828,0.323150,0.000000
0.063769,0.323105,0.068498,0.327985,0.000000
0.063849,0.323422,0.066081,0.327179,0.000000
0.063880,0.323468,0.064469,0.322344,0.000000
0.063930,0.323765,0.063663,0.329597,0.000000
0.064026,0.323976,0.064469,0.326374,0.000000
0.064217,0.324228,0.058828,0.323956,0.000000
0.064268,0.324404,0.064469,0.322344,0.000000
0.064424,0.324717,0.066081,0.327179,0.000000
0.064454,0.324848,0.067692,0.324762,0.000000
0.064630,0.324963,0.064469,0.323150,0.000000
0.064534,0.325140,0.069304,0.327179,0.000000
0.064791,0.325381,0.070110,0.329597,0.000000
0.064862,0.325674,0.064469,0.318315,0.000000
0.064811,0.325689,0.058022,0.313480,0.000000
0.064847,0.325991,0.066081,0.329597,0.000000
0.064857,0.326177,0.070110,0.329597,0.000000
0.065109,0.326631,0.064469,0.326374,0.000000
0.065048,0.326641,0.052381,0.338462,0.000000
0.065325,0.326938,0.068498,0.333626,0.000000
0.065401,0.327285,0.069304,0.324762,0.000000
0.065678,0.327371,0.064469,0.322344,0.000000
0.065627,0.327557,0.070110,0.331209,0.000000
0.065733,0.327759,0.071722,0.326374,0.000000
0.065809,0.328111,0.073333,0.332821,0.000000
0.065733,0.328021,0.062857,0.318315,0.000000
0.065909,0.328388,0.064469,0.337656,0.000000
0.066030,0.328640,0.065275,0.324762,0.000000
0.066252,0.328907,0.064469,0.327179,0.000000
0.066232,0.329033,0.065275,0.335238,0.000000
0.066499,0.329391,0.074945,0.329597,0.000000
0.066559,0.329723,0.063663,0.327985,0.000000
0.066670,0.329773,0.066081,0.323956,0.000000
0.066670,0.330111,0.066886,0.337656,0.000000
0.066776,0.330317,0.069304,0.331209,0.000000
0.066947,0.330725,0.066886,0.332015,0.000000
0.066695,0.330831,0.065275,0.323956,0.000000
0.066937,0.331133,0.075751,0.338462,0.000000
0.066947,0.331430,0.063663,0.328791,0.000000
0.067083,0.331546,0.066886,0.333626,0.000000
0.067018,0.331667,0.064469,0.333626,0.000000
0.067254,0.332040,0.070916,0.335238,0.000000
0.067284,0.332528,0.068498,0.333626,0.000000
