3.020366,2.534432,2.113773,1.627839
3.018754,2.528791,2.113773,1.623810
3.043736,2.558608,2.112967,1.627839
3.039707,2.546520,2.112161,1.618974
3.048571,2.561026,2.124249,1.636703
3.049377,2.561831,2.121831,1.634286
3.044542,2.554579,2.121831,1.631868
3.042125,2.546520,2.121026,1.625421
3.019560,2.527179,2.109744,1.617363
3.011502,2.529597,2.106520,1.624615
3.047765,2.546520,2.125055,1.623810
3.036484,2.536044,2.129084,1.628645
3.044542,2.541685,2.121831,1.618974
3.017143,2.516703,2.112161,1.611722
3.014725,2.527179,2.103297,1.615751
3.030037,2.536850,2.115385,1.622198
3.025202,2.527179,2.119414,1.621392
3.046154,2.543297,2.117802,1.614945
3.026007,2.539267,2.101685,1.614945
3.036484,2.542491,2.112967,1.618974
3.030037,2.541685,2.112967,1.624615
3.024396,2.503809,2.119414,1.598828
3.046960,2.523956,2.118608,1.595604
3.027619,2.544909,2.111355,1.628645
3.045348,2.544909,2.121831,1.621392
3.041319,2.532015,2.125861,1.616557
3.038901,2.544103,2.125861,1.631062
3.005861,2.522344,2.106520,1.623004
3.034066,2.546520,2.111355,1.623810
3.029231,2.548938,2.108938,1.628645
3.026007,2.535238,2.112967,1.622198
3.041319,2.544103,2.120220,1.623004
3.034066,2.540879,2.113773,1.620586
3.023590,2.521538,2.113773,1.611722
3.035678,2.547326,2.111355,1.623004
3.024396,2.531209,2.108938,1.615751
3.024396,2.551355,2.127473,1.654432
3.026813,2.527179,2.118608,1.618974
3.008278,2.526374,2.105714,1.623810
3.023590,2.528791,2.112161,1.617363
3.038095,2.551355,2.117802,1.631062
3.028425,2.523956,2.130696,1.626227
3.048571,2.550550,2.120220,1.622198
3.034872,2.536850,2.108132,1.610110
3.026813,2.548132,2.111355,1.632674
3.038095,2.537656,2.122637,1.622198
3.019560,2.502198,2.129084,1.611722
3.031648,2.515898,2.116190,1.600440
3.021172,2.535238,2.100879,1.614945
3.039707,2.548132,2.119414,1.627839
3.028425,2.536850,2.114579,1.623004
3.016337,2.511868,2.116996,1.612527
3.024396,2.528791,2.108132,1.612527
3.021172,2.531209,2.105714,1.615751
3.038901,2.526374,2.125861,1.613333
3.024396,2.535238,2.108132,1.618974
3.031648,2.537656,2.104908,1.610916
3.010696,2.518315,2.097656,1.605275
3.011502,2.504615,2.109744,1.602857
3.025202,2.523956,2.112161,1.610916
3.048571,2.532015,2.125055,1.608498
3.064689,2.546520,2.136337,1.618168
3.043736,2.544103,2.121026,1.621392
3.025202,2.530403,2.113773,1.618974
3.034872,2.511868,2.120220,1.597216
3.039707,2.523150,2.116190,1.599634
3.016337,2.534432,2.103297,1.621392
3.029231,2.532820,2.092015,1.595604
3.023590,2.520733,2.108132,1.605275
3.027619,2.520733,2.113773,1.606887
3.033260,2.522344,2.117802,1.606887
3.049377,2.537656,2.122637,1.610916
3.031648,2.532015,2.100879,1.601245
3.016337,2.522344,2.100879,1.606887
3.030037,2.521538,2.111355,1.602857
3.016337,2.528791,2.103297,1.615751
3.025202,2.522344,2.101685,1.598828
3.049377,2.528791,2.108132,1.587546
3.045348,2.535238,2.108132,1.598022
3.030037,2.532015,2.100879,1.602857
3.010696,2.520733,2.092820,1.602857
3.020366,2.522344,2.095238,1.597216
3.020366,2.510257,2.103297,1.593187
3.030037,2.517509,2.108938,1.596410
3.044542,2.514286,2.112967,1.582711
3.025202,2.515092,2.110549,1.600440
3.020366,2.506227,2.089597,1.575458
3.018754,2.519121,2.082344,1.582711
3.018754,2.498974,2.091209,1.571429
3.026007,2.521538,2.089597,1.585128
3.020366,2.521538,2.100879,1.602051
3.030037,2.519927,2.095238,1.585128
3.024396,2.521538,2.087179,1.584322
3.024396,2.515092,2.083956,1.574652
3.013113,2.503809,2.083956,1.574652
3.016337,2.513480,2.085568,1.582711
3.026007,2.512674,2.089597,1.576264
3.026007,2.521538,2.087179,1.582711
3.021978,2.494139,2.100879,1.573040
3.014725,2.489304,2.088791,1.563370
3.028425,2.528791,2.092015,1.592381
3.008278,2.497363,2.087179,1.576264
3.014725,2.503809,2.092015,1.581099
3.041319,2.527179,2.100879,1.586740
3.024396,2.510257,2.095238,1.581099
3.001026,2.493333,2.085568,1.577875
3.020366,2.514286,2.086374,1.580293
3.025202,2.504615,2.083956,1.563370
3.009890,2.493333,2.075897,1.559341
3.002637,2.508645,2.075092,1.581099
2.999414,2.492527,2.076703,1.569817
3.021172,2.500586,2.082344,1.561758
3.032454,2.509450,2.090403,1.567399
3.011502,2.488498,2.083150,1.560147
3.017949,2.494139,2.087985,1.564176
3.012308,2.489304,2.096850,1.573846
3.016337,2.491722,2.079121,1.554505
3.012308,2.499780,2.075092,1.562564
3.001026,2.485275,2.069451,1.553700
3.017143,2.502198,2.084762,1.569817
3.001026,2.498168,2.075092,1.572234
3.011502,2.489304,2.066227,1.544029
3.016337,2.482857,2.077509,1.544029
2.988938,2.484469,2.056557,1.552088
3.018754,2.504615,2.076703,1.562564
3.013113,2.478828,2.081538,1.547253
2.992161,2.490110,2.053333,1.551282
3.013919,2.486887,2.080733,1.553700
3.012308,2.481246,2.075092,1.544029
3.017949,2.489304,2.075092,1.546447
3.007473,2.491722,2.067033,1.551282
3.017949,2.493333,2.072674,1.548059
3.011502,2.482857,2.072674,1.544029
3.014725,2.491722,2.072674,1.549670
3.020366,2.488498,2.071062,1.539194
3.001832,2.488498,2.064615,1.551282
3.023590,2.475604,2.075092,1.527106
3.017143,2.482857,2.075897,1.541612
3.002637,2.463516,2.070256,1.531136
3.023590,2.487692,2.071062,1.535165
3.015531,2.487692,2.069451,1.541612
2.991355,2.467546,2.049304,1.525494
2.994579,2.461099,2.067033,1.533553
2.987326,2.470769,2.063004,1.546447
3.009890,2.486081,2.063004,1.539194
2.995385,2.469963,2.054139,1.528718
3.015531,2.490110,2.048498,1.523077
3.018754,2.473993,2.070256,1.525494
2.982491,2.449011,2.050110,1.516630
3.007473,2.472381,2.066227,1.531136
2.996996,2.476410,2.052527,1.531941
2.998608,2.472381,2.053333,1.527106
3.009084,2.487692,2.057363,1.535971
3.003443,2.460293,2.063004,1.519853
2.990550,2.482051,2.049304,1.540806
2.984102,2.473187,2.037216,1.526300
2.997802,2.480440,2.047692,1.530330
3.002637,2.461099,2.063810,1.522271
2.984102,2.471575,2.041245,1.528718
2.980879,2.450623,2.050110,1.519853
2.992161,2.465128,2.048498,1.521465
2.992161,2.460293,2.039634,1.507766
2.994579,2.473187,2.057363,1.535971
3.005055,2.449817,2.063004,1.507766
3.000220,2.480440,2.057363,1.537582
2.997802,2.458681,2.039634,1.500513
2.993773,2.470769,2.047692,1.524689
2.995385,2.459487,2.043663,1.507766
2.989743,2.473187,2.047692,1.531136
3.000220,2.453040,2.056557,1.509377
3.017949,2.477216,2.048498,1.507766
3.006667,2.467546,2.046886,1.507766
2.996191,2.469963,2.046886,1.520659
2.996191,2.469157,2.047692,1.520659
2.999414,2.458681,2.047692,1.506960
2.999414,2.490916,2.036410,1.527912
2.994579,2.454652,2.050916,1.510989
2.992161,2.464322,2.037216,1.509377
2.996996,2.461099,2.043663,1.507766
2.984908,2.456264,2.038828,1.510183
2.996996,2.466740,2.042051,1.511795
3.020366,2.462711,2.053333,1.495678
3.010696,2.474798,2.046886,1.510989
2.996996,2.478022,2.032381,1.513407
2.997802,2.462711,2.063004,1.527912
3.010696,2.473993,2.058168,1.521465
2.984102,2.463516,2.037216,1.516630
2.986520,2.458681,2.040440,1.512601
2.992161,2.470769,2.038022,1.516630
3.009890,2.492527,2.050110,1.532747
2.982491,2.457070,2.032381,1.506960
3.006667,2.473993,2.041245,1.508571
3.000220,2.482857,2.045275,1.527912
3.008278,2.476410,2.067033,1.535165
3.007473,2.502198,2.054139,1.548864
3.003443,2.470769,2.066227,1.533553
3.005861,2.478022,2.063004,1.535165
3.000220,2.495751,2.063004,1.558535
3.021978,2.502198,2.078315,1.558535
3.004249,2.494945,2.078315,1.569011
3.019560,2.518315,2.078315,1.577070
3.003443,2.504615,2.071868,1.573040
3.029231,2.515092,2.098462,1.584322
3.010696,2.527985,2.083150,1.600440
3.021172,2.510257,2.109744,1.598828
3.029231,2.511062,2.103297,1.585128
3.042125,2.548938,2.113773,1.620586
3.014725,2.531209,2.095238,1.611722
3.039707,2.552161,2.112161,1.624615
2.994579,2.527985,2.100879,1.634286
3.024396,2.556996,2.095238,1.627839
3.029231,2.548938,2.116190,1.635897
3.031648,2.540879,2.117802,1.627033
3.022784,2.553773,2.103297,1.634286
3.022784,2.551355,2.108132,1.636703
3.036484,2.538461,2.121026,1.623004
3.023590,2.539267,2.121831,1.637509
3.035678,2.557802,2.122637,1.644762
3.030843,2.548938,2.113773,1.631868
3.054213,2.565861,2.138755,1.650403
3.043736,2.556996,2.129084,1.642344
3.035678,2.569084,2.128278,1.661685
3.035678,2.565055,2.127473,1.656850
3.037289,2.573113,2.121026,1.656850
3.018754,2.559414,2.121026,1.661685
3.048571,2.579561,2.125861,1.656850
3.026813,2.565861,2.129084,1.668132
3.025202,2.565861,2.117802,1.658462
3.042125,2.590842,2.126667,1.675385
3.032454,2.560220,2.133919,1.661685
3.049377,2.592454,2.117802,1.660879
3.058242,2.573919,2.142784,1.658462
3.059854,2.582784,2.137949,1.660879
3.042930,2.569084,2.130696,1.656850
3.028425,2.546520,2.123443,1.641539
3.030037,2.561831,2.125861,1.657656
3.000220,2.552967,2.113773,1.666520
3.046960,2.561831,2.129890,1.644762
3.038095,2.572308,2.127473,1.661685
3.027619,2.540879,2.129084,1.642344
3.050183,2.590037,2.125861,1.665714
3.028425,2.578755,2.114579,1.664908
3.048571,2.568278,2.135531,1.655238
3.043736,2.552967,2.141172,1.650403
3.023590,2.554579,2.126667,1.657656
3.038901,2.560220,2.124249,1.645568
3.034872,2.575531,2.119414,1.660073
3.033260,2.549744,2.133919,1.650403
3.055018,2.573113,2.148425,1.666520
3.026007,2.532015,2.130696,1.636703
3.041319,2.585202,2.125861,1.669744
3.032454,2.569890,2.125055,1.662491
3.046960,2.573113,2.135531,1.661685
3.038095,2.588425,2.122637,1.672967
3.033260,2.569084,2.117802,1.653626
3.059854,2.561831,2.140366,1.642344
3.046960,2.558608,2.132308,1.643956
3.044542,2.555385,2.139560,1.650403
3.034872,2.552161,2.136337,1.653626
3.038901,2.561026,2.134725,1.656850
3.032454,2.556190,2.113773,1.637509
3.041319,2.540073,2.125861,1.624615
3.056630,2.556996,2.141978,1.642344
3.043736,2.567472,2.128278,1.652015
3.031648,2.578755,2.115385,1.662491
3.008278,2.547326,2.108132,1.647179
3.008278,2.531209,2.118608,1.641539
3.025202,2.551355,2.114579,1.640733
3.030037,2.540073,2.126667,1.636703
3.037289,2.548938,2.125861,1.637509
3.019560,2.535238,2.118608,1.634286
3.025202,2.524762,2.125055,1.624615
3.030843,2.536044,2.121026,1.626227
3.001026,2.507839,2.109744,1.616557
3.041319,2.546520,2.125861,1.631062
3.020366,2.543297,2.104908,1.627839
3.035678,2.554579,2.112161,1.631062
3.043736,2.552161,2.122637,1.631062
3.014725,2.542491,2.116996,1.644762
3.040513,2.552967,2.114579,1.627033
3.035678,2.548938,2.111355,1.624615
3.029231,2.547326,2.104908,1.623004
3.030843,2.531209,2.115385,1.615751
3.055018,2.522344,2.146813,1.614139
3.008278,2.526374,2.100879,1.618974
3.017949,2.549744,2.103297,1.635092
3.026007,2.548938,2.111355,1.634286
3.026813,2.539267,2.116190,1.628645
3.033260,2.523956,2.121831,1.612527
3.027619,2.523956,2.114579,1.610916
3.029231,2.532820,2.112967,1.616557
3.034872,2.518315,2.126667,1.610110
3.020366,2.526374,2.103297,1.609304
3.022784,2.530403,2.114579,1.622198
3.024396,2.535238,2.100879,1.611722
3.034066,2.518315,2.119414,1.603663
3.046154,2.536850,2.117802,1.608498
3.027619,2.529597,2.104103,1.606081
3.041319,2.545714,2.118608,1.623004
3.029231,2.552161,2.113773,1.636703
3.022784,2.548938,2.112161,1.638315
3.042125,2.542491,2.113773,1.614139
3.044542,2.551355,2.123443,1.630256
3.023590,2.533626,2.113773,1.623810
3.011502,2.536850,2.100879,1.626227
3.014725,2.548938,2.103297,1.637509
3.020366,2.541685,2.115385,1.636703
3.020366,2.548938,2.106520,1.635092
3.026007,2.532015,2.116190,1.622198
3.029231,2.524762,2.111355,1.606887
3.034872,2.530403,2.126667,1.622198
3.041319,2.532015,2.125861,1.616557
3.026007,2.538461,2.124249,1.636703
3.025202,2.533626,2.112967,1.621392
3.021172,2.520733,2.114579,1.614139
3.019560,2.548938,2.116190,1.645568
3.005861,2.526374,2.116190,1.636703
3.021978,2.546520,2.109744,1.634286
3.009890,2.529597,2.106520,1.626227
3.001026,2.516703,2.095238,1.610916
3.018754,2.511868,2.128278,1.621392
3.021172,2.529597,2.114579,1.623004
3.042125,2.536850,2.141978,1.636703
3.026813,2.540879,2.111355,1.625421
3.027619,2.532015,2.116190,1.620586
3.035678,2.549744,2.120220,1.634286
3.028425,2.536044,2.112161,1.619780
3.041319,2.558608,2.126667,1.643956
3.038095,2.539267,2.131502,1.632674
3.032454,2.544103,2.112967,1.624615
3.030037,2.548938,2.116190,1.635092
3.015531,2.541685,2.104908,1.631062
3.045348,2.537656,2.127473,1.619780
3.013919,2.527179,2.108938,1.622198
3.030037,2.553773,2.104103,1.627839
3.022784,2.530403,2.115385,1.623004
3.038095,2.534432,2.126667,1.623004
3.036484,2.541685,2.130696,1.635897
3.026007,2.535238,2.115385,1.624615
3.027619,2.540879,2.114579,1.627839
3.036484,2.560220,2.111355,1.635092
3.029231,2.537656,2.108132,1.616557
3.030037,2.513480,2.114579,1.598022
3.020366,2.527179,2.104908,1.611722
3.011502,2.533626,2.096850,1.618974
3.021978,2.534432,2.101685,1.614139
3.026007,2.526374,2.112967,1.613333
3.021978,2.541685,2.106520,1.626227
3.013919,2.530403,2.096044,1.612527
3.036484,2.525568,2.121026,1.610110
3.039707,2.536044,2.111355,1.607692
3.026007,2.518315,2.111355,1.603663
3.030843,2.509450,2.126667,1.605275
3.038095,2.535238,2.113773,1.610916
3.012308,2.499780,2.100879,1.588352
3.014725,2.520733,2.103297,1.609304
3.039707,2.541685,2.111355,1.613333
3.003443,2.540073,2.096044,1.632674
3.015531,2.526374,2.100073,1.610916
3.014725,2.513480,2.099267,1.598022
3.039707,2.507033,2.121831,1.589157
3.037289,2.516703,2.111355,1.590769
3.033260,2.509450,2.125861,1.602051
3.034872,2.526374,2.119414,1.610916
3.013113,2.540073,2.088791,1.615751
3.005055,2.529597,2.090403,1.614945
3.030037,2.527985,2.112967,1.610916
3.001026,2.495751,2.105714,1.600440
3.025202,2.513480,2.111355,1.599634
3.042125,2.523150,2.111355,1.592381
3.017143,2.517509,2.101685,1.602051
3.011502,2.519121,2.098462,1.606081
3.038901,2.523956,2.112161,1.597216
3.030037,2.525568,2.100073,1.595604
3.035678,2.515898,2.114579,1.594799
3.016337,2.500586,2.100879,1.585128
3.013113,2.524762,2.097656,1.609304
3.031648,2.521538,2.108132,1.598022
3.013113,2.496557,2.097656,1.581099
3.026813,2.500586,2.118608,1.592381
3.025202,2.535238,2.100879,1.610916
3.008278,2.511868,2.092820,1.596410
3.015531,2.502198,2.098462,1.585128
3.018754,2.484469,2.097656,1.563370
3.023590,2.505421,2.103297,1.585128
3.026813,2.528791,2.085568,1.587546
3.009084,2.518315,2.088791,1.598022
3.011502,2.506227,2.090403,1.585128
3.017143,2.515898,2.086374,1.585128
3.012308,2.500586,2.096044,1.584322
3.029231,2.515092,2.100879,1.586740
3.031648,2.517509,2.101685,1.587546
3.021978,2.506227,2.100879,1.585128
3.001026,2.507033,2.075092,1.581099
3.000220,2.494139,2.075092,1.569011
3.020366,2.493333,2.100879,1.573846
3.019560,2.505421,2.100073,1.585934
3.009890,2.519927,2.075092,1.585128
3.009890,2.498974,2.085568,1.574652
2.998608,2.487692,2.083150,1.572234
3.009084,2.498168,2.088791,1.577875
3.019560,2.499780,2.095238,1.575458
3.012308,2.492527,2.087179,1.567399
3.007473,2.490916,2.078315,1.561758
3.003443,2.498168,2.075092,1.569817
2.995385,2.496557,2.082344,1.583516
3.010696,2.483663,2.083956,1.556923
3.004249,2.490110,2.074286,1.560147
2.997802,2.483663,2.074286,1.560147
3.020366,2.497363,2.092015,1.569011
3.017949,2.507839,2.077509,1.567399
2.997802,2.474798,2.076703,1.553700
3.007473,2.502198,2.077509,1.572234
3.025202,2.493333,2.092015,1.560147
3.002637,2.480440,2.082344,1.560147
3.001026,2.482857,2.075092,1.556923
3.007473,2.486081,2.079121,1.557729
3.009890,2.473187,2.095238,1.558535
3.002637,2.486887,2.075897,1.560147
3.013919,2.498168,2.075092,1.559341
3.005055,2.489304,2.075092,1.559341
2.986520,2.481246,2.075092,1.569817
2.998608,2.493333,2.075092,1.569817
3.016337,2.498168,2.077509,1.559341
3.005055,2.501392,2.075092,1.571429
3.009084,2.472381,2.088791,1.552088
3.006667,2.480440,2.085568,1.559341
3.034872,2.496557,2.098462,1.560147
3.002637,2.480440,2.075897,1.553700
3.002637,2.483663,2.074286,1.555311
3.002637,2.468352,2.075897,1.541612
3.012308,2.498974,2.097656,1.584322
2.997802,2.487692,2.069451,1.559341
3.016337,2.485275,2.090403,1.559341
3.011502,2.482051,2.087179,1.557729
3.001026,2.482051,2.072674,1.553700
3.006667,2.492527,2.079121,1.564982
2.986520,2.484469,2.057363,1.555311
2.995385,2.478828,2.063004,1.546447
3.011502,2.488498,2.082344,1.559341
2.998608,2.503809,2.056557,1.561758
3.011502,2.477216,2.092015,1.557729
3.021978,2.511868,2.063810,1.553700
2.996191,2.486081,2.067033,1.556923
3.004249,2.476410,2.075092,1.547253
3.013919,2.489304,2.075092,1.550476
3.018754,2.481246,2.087985,1.550476
3.017143,2.487692,2.071062,1.541612
2.982491,2.488498,2.052527,1.558535
3.013919,2.486081,2.072674,1.544835
3.021172,2.487692,2.079121,1.545641
3.002637,2.454652,2.082344,1.534359
2.983297,2.449011,2.050916,1.516630
3.009890,2.503809,2.063004,1.556923
2.988938,2.452235,2.071062,1.534359
2.978462,2.472381,2.052527,1.546447
3.012308,2.485275,2.073480,1.546447
3.026007,2.483663,2.080733,1.538388
3.013113,2.478022,2.071868,1.536777
2.992967,2.441758,2.074286,1.523077
2.986520,2.469157,2.057363,1.540000
3.003443,2.486081,2.073480,1.556117
3.011502,2.482051,2.067839,1.538388
3.003443,2.478828,2.071062,1.546447
3.004249,2.457070,2.086374,1.539194
3.001832,2.486081,2.075092,1.559341
3.000220,2.482051,2.082344,1.564176
3.005861,2.477216,2.073480,1.544835
3.018754,2.492527,2.085568,1.559341
3.003443,2.503004,2.075092,1.574652
3.023590,2.513480,2.089597,1.579487
3.046154,2.519121,2.112161,1.585128
3.027619,2.530403,2.088791,1.591575
3.038901,2.542491,2.105714,1.609304
3.024396,2.517509,2.104908,1.598022
3.037289,2.534432,2.112161,1.609304
3.026007,2.534432,2.108132,1.616557
3.017143,2.542491,2.106520,1.631868
3.017143,2.535238,2.109744,1.627839
3.058242,2.570696,2.128278,1.640733
3.036484,2.552161,2.121026,1.636703
3.031648,2.552161,2.116190,1.636703
3.042125,2.556190,2.126667,1.640733
3.052601,2.556190,2.137143,1.640733
3.017949,2.548132,2.126667,1.656850
3.023590,2.564249,2.116190,1.656850
3.043736,2.579561,2.126667,1.662491
3.031648,2.566667,2.125055,1.660073
3.014725,2.573113,2.109744,1.668132
3.034872,2.565861,2.131502,1.662491
3.024396,2.563443,2.130696,1.669744
3.052601,2.573919,2.136337,1.657656
3.028425,2.565861,2.123443,1.660879
3.050989,2.562637,2.142784,1.654432
3.052601,2.551355,2.154066,1.652820
3.029231,2.561026,2.148425,1.680220
3.044542,2.580366,2.131502,1.667326
3.042930,2.572308,2.140366,1.669744
3.027619,2.552967,2.146813,1.672161
3.049377,2.581172,2.152454,1.684249
3.036484,2.581172,2.131502,1.676190
3.034872,2.552161,2.136337,1.653626
3.031648,2.573919,2.137949,1.680220
3.059048,2.569084,2.152454,1.662491
3.059854,2.575531,2.146813,1.662491
3.045348,2.588425,2.150037,1.693114
3.041319,2.587619,2.143590,1.689890
3.050183,2.561026,2.146813,1.657656
3.040513,2.577949,2.139560,1.676996
3.043736,2.580366,2.140366,1.676996
3.038095,2.581172,2.150037,1.693114
3.038901,2.581978,2.131502,1.674579
3.046960,2.587619,2.141978,1.682637
3.031648,2.569084,2.145201,1.682637
3.034872,2.575531,2.133919,1.674579
3.063883,2.582784,2.151648,1.670549
3.035678,2.567472,2.138755,1.670549
3.055824,2.571502,2.144396,1.660073
3.021978,2.576337,2.129890,1.684249
3.034066,2.569084,2.127473,1.662491
3.053406,2.571502,2.154872,1.672967
3.046154,2.567472,2.141172,1.662491
3.029231,2.573919,2.130696,1.675385
3.028425,2.567472,2.137143,1.676190
3.016337,2.563443,2.122637,1.669744
3.031648,2.569084,2.126667,1.664103
3.036484,2.585202,2.121026,1.669744
3.050989,2.601319,2.135531,1.685861
3.018754,2.572308,2.129084,1.682637
3.035678,2.565861,2.140366,1.670549
3.024396,2.560220,2.133919,1.669744
3.060659,2.582784,2.145201,1.667326
3.053406,2.586813,2.137143,1.670549
3.046154,2.579561,2.129084,1.662491
3.043736,2.571502,2.153260,1.681026
3.030037,2.561026,2.131502,1.662491
3.048571,2.580366,2.132308,1.664103
3.020366,2.551355,2.126667,1.657656
3.032454,2.559414,2.130696,1.657656
3.050989,2.548938,2.149231,1.647179
3.021978,2.540879,2.126667,1.645568
3.041319,2.587619,2.117802,1.664103
3.030843,2.574725,2.122637,1.666520
3.048571,2.568278,2.133919,1.653626
3.038095,2.574725,2.139560,1.676190
3.031648,2.536850,2.131502,1.636703
3.018754,2.536044,2.123443,1.640733
3.036484,2.569890,2.129084,1.662491
3.026007,2.562637,2.125861,1.662491
3.041319,2.554579,2.127473,1.640733
3.039707,2.559414,2.125861,1.645568
3.008278,2.547326,2.105714,1.644762
3.041319,2.559414,2.125861,1.643956
3.012308,2.541685,2.121026,1.650403
3.038095,2.579561,2.121026,1.662491
3.017949,2.533626,2.117802,1.633480
3.040513,2.559414,2.117802,1.636703
3.026813,2.527985,2.126667,1.627839
3.009084,2.511868,2.113773,1.616557
3.040513,2.553773,2.127473,1.640733
3.025202,2.536044,2.125861,1.636703
3.041319,2.555385,2.125861,1.639927
3.014725,2.524762,2.112967,1.623004
3.018754,2.547326,2.107326,1.635897
3.031648,2.537656,2.116190,1.622198
3.017949,2.525568,2.114579,1.622198
3.028425,2.540073,2.116996,1.628645
3.013113,2.519927,2.112967,1.619780
3.032454,2.552967,2.121026,1.641539
3.031648,2.534432,2.126667,1.629451
3.028425,2.577949,2.102491,1.652015
3.043736,2.553773,2.119414,1.629451
3.050183,2.536850,2.132308,1.618974
3.042125,2.544103,2.134725,1.636703
3.026007,2.551355,2.126667,1.652015
3.036484,2.553773,2.121026,1.638315
3.041319,2.542491,2.126667,1.627839
3.042930,2.577143,2.126667,1.660879
3.006667,2.526374,2.112967,1.632674
3.021978,2.536850,2.122637,1.637509
3.020366,2.537656,2.108938,1.626227
3.038901,2.558608,2.119414,1.639121
3.018754,2.530403,2.121026,1.632674
3.030037,2.556996,2.128278,1.655238
3.031648,2.541685,2.131502,1.641539
3.044542,2.562637,2.118608,1.636703
3.020366,2.536850,2.123443,1.639927
3.027619,2.536044,2.117802,1.626227
3.042125,2.540073,2.137143,1.635092
3.020366,2.552967,2.121026,1.653626
3.042125,2.544103,2.126667,1.628645
3.047765,2.565055,2.121831,1.639121
3.024396,2.551355,2.116190,1.643150
3.048571,2.572308,2.132308,1.656044
3.039707,2.518315,2.137949,1.616557
3.055018,2.559414,2.126667,1.631062
3.030037,2.538461,2.121026,1.629451
3.018754,2.527985,2.121831,1.631062
3.033260,2.532015,2.117802,1.616557
3.041319,2.528791,2.137949,1.625421
3.032454,2.550550,2.112967,1.631062
3.008278,2.536850,2.108132,1.636703
3.028425,2.548938,2.116190,1.636703
3.025202,2.556190,2.122637,1.653626
3.037289,2.547326,2.126667,1.636703
3.023590,2.531209,2.112161,1.619780
3.036484,2.548132,2.125055,1.636703
3.027619,2.529597,2.114579,1.616557
3.038095,2.551355,2.125861,1.639121
3.047765,2.546520,2.121831,1.620586
3.039707,2.532015,2.118608,1.610916
3.041319,2.521538,2.123443,1.603663
3.038095,2.560220,2.111355,1.633480
3.021978,2.528791,2.114579,1.621392
3.014725,2.503809,2.114579,1.603663
3.047765,2.532820,2.125055,1.610110
3.030037,2.525568,2.114579,1.610110
3.026007,2.550550,2.113773,1.638315
3.025202,2.529597,2.108938,1.613333
3.014725,2.531209,2.108132,1.624615
3.050183,2.529597,2.121026,1.600440
3.017143,2.529597,2.113773,1.626227
3.021978,2.521538,2.105714,1.605275
3.034066,2.553773,2.108132,1.627839
3.037289,2.546520,2.103297,1.612527
3.033260,2.537656,2.102491,1.606887
3.033260,2.528791,2.109744,1.605275
3.040513,2.515898,2.124249,1.599634
3.019560,2.516703,2.114579,1.611722
3.037289,2.536850,2.112967,1.612527
3.021172,2.538461,2.093626,1.610916
3.025202,2.525568,2.110549,1.610916
3.009890,2.517509,2.108938,1.616557
3.037289,2.527179,2.121831,1.611722
3.030037,2.525568,2.109744,1.605275
3.025202,2.514286,2.108938,1.598022
3.027619,2.511868,2.112967,1.597216
3.028425,2.519121,2.129084,1.619780
3.047765,2.540879,2.119414,1.612527
3.032454,2.514286,2.116190,1.598022
3.016337,2.524762,2.100879,1.609304
3.006667,2.517509,2.100879,1.611722
3.027619,2.527985,2.109744,1.610110
3.020366,2.508645,2.112161,1.600440
3.022784,2.547326,2.094432,1.618974
3.014725,2.521538,2.100879,1.607692
3.020366,2.530403,2.099267,1.609304
3.030843,2.523956,2.113773,1.606887
3.028425,2.494945,2.125861,1.592381
3.034066,2.527179,2.104908,1.598022
3.015531,2.521538,2.100879,1.606887
3.010696,2.496557,2.109744,1.595604
3.012308,2.513480,2.096850,1.598022
3.017949,2.487692,2.104908,1.574652
3.030843,2.507839,2.103297,1.580293
3.010696,2.492527,2.100879,1.582711
3.020366,2.507033,2.100879,1.587546
3.010696,2.507839,2.100879,1.598022
3.017143,2.498168,2.101685,1.582711
3.026007,2.510257,2.108132,1.592381
3.024396,2.526374,2.087985,1.589963
3.035678,2.514286,2.111355,1.589963
3.025202,2.498974,2.109744,1.583516
3.027619,2.489304,2.112161,1.573846
3.024396,2.506227,2.096044,1.577875
3.003443,2.504615,2.092820,1.593993
3.024396,2.518315,2.105714,1.599634
3.014725,2.505421,2.092015,1.582711
3.025202,2.505421,2.104908,1.585128
3.006667,2.512674,2.078315,1.584322
3.017949,2.509450,2.092015,1.583516
3.032454,2.513480,2.104103,1.585128
3.016337,2.498168,2.100879,1.582711
3.012308,2.486081,2.111355,1.585128
3.026813,2.494945,2.098462,1.566593
3.016337,2.513480,2.082344,1.579487
3.013919,2.486081,2.098462,1.570623
3.030843,2.497363,2.101685,1.568205
3.013113,2.503809,2.095238,1.585934
3.010696,2.474798,2.090403,1.554505
3.030843,2.503809,2.101685,1.574652
2.989743,2.469963,2.079121,1.559341
3.005861,2.476410,2.090403,1.560952
3.012308,2.470769,2.098462,1.556923
3.030037,2.473187,2.100879,1.544029
2.997802,2.479634,2.077509,1.559341
3.020366,2.475604,2.092015,1.547253
3.027619,2.509450,2.086374,1.568205
3.015531,2.457070,2.096044,1.537582
3.012308,2.473993,2.083956,1.545641
2.984908,2.488498,2.057363,1.560952
3.020366,2.471575,2.096850,1.548059
3.013113,2.480440,2.077509,1.544835
3.022784,2.481246,2.089597,1.548059
3.019560,2.478828,2.072674,1.531941
2.999414,2.475604,2.071062,1.547253
2.989743,2.460293,2.076703,1.547253
3.022784,2.486081,2.088791,1.552088
3.004249,2.480440,2.075092,1.551282
2.978462,2.466740,2.055751,1.544029
2.983297,2.444982,2.070256,1.531941
3.042125,2.509450,2.092015,1.559341
2.999414,2.470769,2.071062,1.542418
3.009084,2.467546,2.078315,1.536777
2.999414,2.473187,2.066227,1.540000
3.019560,2.475604,2.082344,1.538388
2.996191,2.461905,2.070256,1.535971
3.017949,2.485275,2.076703,1.544029
3.001832,2.455458,2.063004,1.516630
2.983297,2.457070,2.052527,1.526300
2.980073,2.424835,2.063004,1.507766
3.000220,2.457070,2.074286,1.531136
2.993773,2.456264,2.071062,1.533553
3.004249,2.474798,2.063004,1.533553
2.992967,2.460293,2.063004,1.530330
3.004249,2.461905,2.075897,1.533553
3.004249,2.472381,2.063004,1.531136
2.992967,2.443370,2.068645,1.519048
3.004249,2.441758,2.075092,1.512601
2.997802,2.436117,2.067033,1.505348
2.972015,2.420806,2.053333,1.502125
3.000220,2.438535,2.067033,1.505348
2.992967,2.458681,2.056557,1.522271
3.002637,2.444176,2.063004,1.504542
2.988938,2.453040,2.049304,1.513407
2.998608,2.453846,2.057363,1.512601
2.986520,2.444982,2.049304,1.507766
2.973626,2.428864,2.053333,1.508571
2.980879,2.446594,2.046886,1.512601
3.002637,2.462711,2.064615,1.524689
3.010696,2.440952,2.082344,1.512601
2.971209,2.424835,2.051722,1.505348
3.021172,2.460293,2.080733,1.519853
2.974432,2.445787,2.040440,1.511795
3.005861,2.477216,2.049304,1.520659
3.009084,2.443370,2.072674,1.506960
2.973626,2.446594,2.043663,1.516630
3.003443,2.475604,2.075092,1.547253
2.980879,2.433700,2.055751,1.508571
3.005055,2.435311,2.063810,1.494066
2.976850,2.436923,2.047692,1.507766
3.013919,2.457875,2.064615,1.508571
2.976044,2.445787,2.054945,1.524689
2.971209,2.437729,2.040440,1.506960
2.970403,2.434505,2.029157,1.493260
2.993773,2.452235,2.051722,1.510183
2.991355,2.453040,2.050110,1.511795
2.992161,2.475604,2.049304,1.532747
2.984908,2.449011,2.050916,1.515018
2.980879,2.441758,2.046886,1.507766
2.988938,2.473993,2.047692,1.532747
2.998608,2.473187,2.057363,1.531941
2.996191,2.461905,2.050916,1.516630
3.024396,2.475604,2.083150,1.534359
3.013919,2.487692,2.071062,1.544835
2.994579,2.449817,2.079121,1.534359
3.008278,2.478828,2.075897,1.546447
3.021172,2.504615,2.083956,1.567399
3.017949,2.534432,2.075897,1.592381
3.023590,2.487692,2.095238,1.559341
2.999414,2.484469,2.083150,1.568205
3.009890,2.514286,2.090403,1.594799
3.044542,2.513480,2.116190,1.585128
3.026007,2.513480,2.110549,1.598022
3.018754,2.512674,2.107326,1.601245
3.015531,2.507839,2.110549,1.602857
3.029231,2.542491,2.113773,1.627033
3.028425,2.552161,2.112967,1.636703
3.017143,2.544909,2.100879,1.628645
3.015531,2.517509,2.121026,1.623004
3.021172,2.532820,2.125861,1.637509
3.030843,2.540073,2.127473,1.636703
3.046960,2.563443,2.138755,1.655238
3.038901,2.576337,2.121026,1.658462
3.048571,2.548938,2.143590,1.643956
3.038901,2.537656,2.141978,1.640733
3.016337,2.536850,2.124249,1.644762
3.049377,2.544103,2.139560,1.634286
3.030843,2.559414,2.123443,1.652015
3.021172,2.554579,2.126667,1.660073
3.038095,2.552161,2.137949,1.652015
3.023590,2.543297,2.137949,1.657656
3.046154,2.571502,2.133919,1.659267
3.048571,2.588425,2.137143,1.676996
3.033260,2.525568,2.144396,1.636703
3.031648,2.569084,2.141978,1.679414
3.043736,2.577949,2.137949,1.672161
3.032454,2.534432,2.138755,1.640733
3.042930,2.573113,2.137143,1.667326
3.019560,2.545714,2.137949,1.664103
3.022784,2.558608,2.127473,1.663297
3.047765,2.573113,2.150842,1.676190
3.054213,2.553773,2.163736,1.663297
3.045348,2.556996,2.150842,1.662491
3.042930,2.576337,2.144396,1.677802
3.040513,2.583590,2.139560,1.682637
3.039707,2.544103,2.152454,1.656850
3.042125,2.560220,2.152454,1.670549
3.029231,2.575531,2.128278,1.674579
3.015531,2.550550,2.123443,1.658462
3.042930,2.553773,2.151648,1.662491
3.021172,2.552161,2.131502,1.662491
3.038095,2.551355,2.150037,1.663297
3.034872,2.556996,2.141978,1.664103
3.029231,2.547326,2.152454,1.670549
3.046960,2.556996,2.150037,1.660073
3.038095,2.561831,2.147619,1.671355
3.047765,2.551355,2.153260,1.656850
3.028425,2.552967,2.139560,1.664103
3.046154,2.542491,2.157289,1.653626
3.039707,2.562637,2.133919,1.656850
3.035678,2.548938,2.145201,1.658462
3.040513,2.573919,2.129084,1.662491
3.034872,2.559414,2.135531,1.660073
3.052601,2.556996,2.152454,1.656850
3.053406,2.561026,2.146813,1.654432
3.042125,2.550550,2.152454,1.660879
3.036484,2.541685,2.146813,1.652015
3.050183,2.567472,2.144396,1.661685
3.025202,2.550550,2.137143,1.662491
3.040513,2.560220,2.140366,1.660073
3.036484,2.547326,2.146813,1.657656
3.015531,2.535238,2.125861,1.645568
3.054213,2.561026,2.138755,1.645568
3.024396,2.542491,2.134725,1.652820
3.037289,2.564249,2.138755,1.665714
3.039707,2.548132,2.141978,1.650403
3.016337,2.540073,2.126667,1.650403
3.021978,2.525568,2.126667,1.630256
3.050989,2.565861,2.138755,1.653626
3.019560,2.548132,2.122637,1.651209
3.018754,2.534432,2.125861,1.641539
3.039707,2.562637,2.134725,1.657656
3.004249,2.514286,2.126667,1.636703
3.034872,2.575531,2.121831,1.662491
3.035678,2.527985,2.129084,1.621392
3.032454,2.535238,2.132308,1.635092
3.041319,2.564249,2.139560,1.662491
3.040513,2.536850,2.126667,1.623004
3.022784,2.527985,2.129084,1.634286
3.032454,2.527179,2.133919,1.628645
3.026007,2.537656,2.112161,1.623810
3.002637,2.517509,2.109744,1.624615
3.042125,2.573113,2.122637,1.653626
3.027619,2.515092,2.133919,1.621392
3.018754,2.517509,2.114579,1.613333
3.028425,2.511868,2.134725,1.618168
3.038901,2.544103,2.126667,1.631868
3.053406,2.560220,2.126667,1.633480
3.033260,2.523956,2.135531,1.626227
3.021172,2.511868,2.128278,1.618974
3.013113,2.536850,2.105714,1.629451
3.039707,2.536850,2.126667,1.623810
3.005861,2.527179,2.111355,1.632674
3.030843,2.536044,2.130696,1.635897
3.015531,2.522344,2.121831,1.628645
3.042125,2.556190,2.122637,1.636703
3.028425,2.540879,2.112967,1.625421
3.030037,2.527179,2.118608,1.615751
3.035678,2.534432,2.125055,1.623810
3.035678,2.529597,2.122637,1.616557
3.027619,2.537656,2.117802,1.627839
3.022784,2.531209,2.111355,1.619780
3.043736,2.539267,2.126667,1.622198
3.030037,2.539267,2.126667,1.635897
3.030843,2.536044,2.119414,1.624615
3.019560,2.509450,2.126667,1.616557
3.038095,2.527985,2.129084,1.618974
3.021978,2.517509,2.126667,1.622198
3.013919,2.509450,2.115385,1.610916
3.017949,2.546520,2.109744,1.638315
3.025202,2.526374,2.116996,1.618168
3.042125,2.534432,2.126667,1.618974
3.029231,2.506227,2.136337,1.613333
3.031648,2.536044,2.128278,1.632674
3.029231,2.518315,2.138755,1.627839
3.035678,2.523150,2.137143,1.624615
3.030843,2.536850,2.126667,1.632674
3.021978,2.511062,2.129890,1.618974
3.013919,2.528791,2.121831,1.636703
3.046960,2.552161,2.131502,1.636703
3.017949,2.517509,2.122637,1.622198
3.020366,2.540073,2.108132,1.627839
3.063077,2.561026,2.133919,1.631868
3.017949,2.520733,2.122637,1.625421
3.034872,2.544909,2.126667,1.636703
3.014725,2.508645,2.121026,1.614945
3.031648,2.542491,2.115385,1.626227
3.041319,2.528791,2.137949,1.625421
3.023590,2.512674,2.121831,1.610916
3.012308,2.529597,2.114579,1.631868
3.031648,2.516703,2.115385,1.600440
3.020366,2.521538,2.109744,1.610916
3.021978,2.515092,2.113773,1.606887
3.044542,2.509450,2.145201,1.610110
3.038095,2.554579,2.122637,1.639121
3.034066,2.536044,2.118608,1.620586
3.041319,2.527179,2.125861,1.611722
3.017949,2.532820,2.116190,1.631062
3.018754,2.523150,2.115385,1.619780
3.027619,2.511062,2.127473,1.610916
3.030843,2.521538,2.121026,1.611722
3.050183,2.534432,2.126667,1.610916
3.001026,2.524762,2.108938,1.632674
3.024396,2.532015,2.121831,1.629451
3.005055,2.496557,2.113773,1.605275
3.034066,2.509450,2.121026,1.596410
3.030037,2.515092,2.114579,1.599634
3.028425,2.532015,2.112161,1.615751
3.026813,2.535238,2.109744,1.618168
3.023590,2.507839,2.113773,1.598022
3.027619,2.508645,2.121026,1.602051
3.031648,2.513480,2.117802,1.599634
3.032454,2.531209,2.112161,1.610916
3.016337,2.519927,2.104908,1.608498
3.006667,2.517509,2.108132,1.618974
3.036484,2.515898,2.122637,1.602051
3.017143,2.519121,2.108938,1.610916
3.001832,2.494139,2.104908,1.597216
3.027619,2.511868,2.117802,1.602051
3.013113,2.502198,2.117802,1.606887
3.028425,2.502198,2.108132,1.581905
3.025202,2.511868,2.111355,1.598022
3.013113,2.512674,2.106520,1.606081
3.027619,2.508645,2.116996,1.598022
3.030843,2.511868,2.112967,1.593993
3.021172,2.494139,2.113773,1.586740
3.017949,2.492527,2.112967,1.587546
3.027619,2.491722,2.106520,1.570623
3.030037,2.507033,2.113773,1.590769
3.012308,2.514286,2.096850,1.598828
3.023590,2.510257,2.105714,1.592381
3.034066,2.526374,2.108132,1.600440
2.988938,2.487692,2.088791,1.587546
3.032454,2.512674,2.116190,1.596410
3.027619,2.498974,2.113773,1.585128
3.024396,2.486887,2.110549,1.573040
3.019560,2.515898,2.101685,1.598022
3.027619,2.494945,2.100879,1.568205
2.997802,2.499780,2.100073,1.602051
3.021172,2.503809,2.101685,1.584322
2.996996,2.482857,2.086374,1.572234
3.002637,2.474798,2.100879,1.573040
3.015531,2.479634,2.095238,1.559341
3.009084,2.493333,2.100879,1.585128
3.035678,2.519927,2.099267,1.583516
3.040513,2.501392,2.107326,1.568205
3.015531,2.497363,2.100879,1.582711
3.013919,2.513480,2.092820,1.592381
3.009890,2.482857,2.112161,1.585128
3.021978,2.493333,2.113773,1.585128
3.005861,2.488498,2.089597,1.572234
3.019560,2.494139,2.101685,1.576264
3.033260,2.517509,2.100879,1.585128
2.999414,2.491722,2.096850,1.589157
3.011502,2.471575,2.109744,1.569817
3.009890,2.493333,2.087179,1.570623
3.021978,2.498168,2.106520,1.582711
3.008278,2.465128,2.101685,1.558535
3.028425,2.511062,2.102491,1.585128
3.009084,2.493333,2.089597,1.573846
3.005055,2.498974,2.076703,1.570623
3.020366,2.484469,2.101685,1.565788
3.017949,2.480440,2.096850,1.559341
3.016337,2.478828,2.100879,1.563370
3.017143,2.478022,2.100879,1.561758
3.009890,2.478828,2.088791,1.557729
3.014725,2.473187,2.100879,1.559341
3.005055,2.479634,2.089597,1.564176
3.017949,2.488498,2.089597,1.560147
3.024396,2.505421,2.096044,1.577070
3.020366,2.495751,2.082344,1.557729
3.009890,2.473993,2.089597,1.553700
3.008278,2.498974,2.079121,1.569817
3.006667,2.479634,2.087179,1.560147
3.016337,2.479634,2.087179,1.550476
3.013919,2.478828,2.087985,1.552894
3.018754,2.467546,2.096044,1.544835
3.024396,2.484469,2.100073,1.560147
3.008278,2.469157,2.085568,1.546447
3.011502,2.458681,2.088791,1.535971
3.009084,2.477216,2.081538,1.549670
2.987326,2.461905,2.070256,1.544835
3.005055,2.466740,2.080733,1.542418
3.005861,2.461099,2.080733,1.535971
3.011502,2.473187,2.082344,1.544029
3.005861,2.482857,2.076703,1.553700
3.021172,2.469963,2.084762,1.533553
2.984102,2.462711,2.067839,1.546447
3.002637,2.466740,2.074286,1.538388
3.000220,2.470769,2.063004,1.533553
2.998608,2.440146,2.074286,1.515824
3.006667,2.474798,2.064615,1.532747
3.020366,2.472381,2.083956,1.535971
3.016337,2.476410,2.082344,1.542418
3.003443,2.443370,2.075092,1.515018
3.016337,2.469157,2.082344,1.535165
2.991355,2.453846,2.071062,1.533553
2.984102,2.463516,2.054139,1.533553
3.015531,2.470769,2.072674,1.527912
3.005861,2.453846,2.072674,1.520659
2.976850,2.448205,2.050110,1.521465
3.001832,2.448205,2.075897,1.522271
2.983297,2.433700,2.056557,1.506960
3.025202,2.465128,2.075897,1.515824
3.008278,2.470769,2.067033,1.529524
2.999414,2.456264,2.054139,1.510989
3.016337,2.456264,2.075092,1.515018
3.001026,2.449817,2.071062,1.519853
2.973626,2.442564,2.057363,1.526300
2.983297,2.449817,2.042051,1.508571
3.001026,2.453040,2.073480,1.525494
2.982491,2.436923,2.053333,1.507766
2.984908,2.444176,2.049304,1.508571
2.997802,2.435311,2.075092,1.512601
3.002637,2.450623,2.070256,1.518242
2.979267,2.440146,2.046886,1.507766
3.009084,2.462711,2.075092,1.528718
2.981685,2.457875,2.040440,1.516630
2.985714,2.425641,2.054945,1.494872
2.993773,2.441758,2.052527,1.500513
3.013919,2.481246,2.066227,1.533553
2.988938,2.438535,2.063004,1.512601
2.989743,2.449817,2.063004,1.523077
3.001832,2.433700,2.063004,1.494872
2.986520,2.442564,2.051722,1.507766
3.005861,2.444982,2.070256,1.509377
3.006667,2.449817,2.073480,1.516630
2.969597,2.437729,2.050110,1.518242
2.982491,2.427253,2.057363,1.502125
2.992161,2.439341,2.063004,1.510183
2.963956,2.430476,2.048498,1.515018
2.979267,2.437729,2.049304,1.507766
2.992967,2.434505,2.075092,1.516630
3.005861,2.453846,2.074286,1.522271
3.008278,2.466740,2.066227,1.524689
3.010696,2.449011,2.080733,1.519048
2.993773,2.467546,2.063004,1.536777
3.013113,2.455458,2.092015,1.534359
2.988132,2.452235,2.066227,1.530330
2.999414,2.466740,2.075897,1.543224
2.996996,2.471575,2.083150,1.557729
3.002637,2.474798,2.087179,1.559341
3.017143,2.487692,2.101685,1.572234
3.030843,2.502198,2.102491,1.573846
3.035678,2.503809,2.109744,1.577875
3.016337,2.504615,2.098462,1.586740
3.008278,2.497363,2.100073,1.589157
3.006667,2.502198,2.106520,1.602051
3.024396,2.517509,2.114579,1.607692
3.019560,2.532820,2.119414,1.632674
3.009084,2.523956,2.111355,1.626227
3.029231,2.528791,2.116190,1.615751
3.019560,2.544909,2.127473,1.652820
3.046960,2.539267,2.138755,1.631062
3.026813,2.555385,2.122637,1.651209
3.018754,2.524762,2.129084,1.635092
3.032454,2.541685,2.125861,1.635092
3.022784,2.520733,2.141172,1.639121
3.053406,2.569890,2.140366,1.656850
3.044542,2.556996,2.138755,1.651209
3.040513,2.543297,2.138755,1.641539
3.042125,2.543297,2.141172,1.642344
3.038095,2.556996,2.143590,1.662491
3.039707,2.529597,2.141172,1.631062
3.046154,2.569084,2.132308,1.655238
3.039707,2.539267,2.145201,1.644762
3.036484,2.532820,2.142784,1.639121
3.030843,2.504615,2.154066,1.627839
3.042930,2.547326,2.139560,1.643956
3.032454,2.561026,2.132308,1.660879
3.036484,2.531209,2.141978,1.636703
3.034066,2.553773,2.130696,1.650403
3.057436,2.561026,2.158095,1.661685
3.044542,2.571502,2.131502,1.658462
3.059048,2.577949,2.147619,1.666520
3.049377,2.544103,2.147619,1.642344
3.037289,2.560220,2.134725,1.657656
3.038095,2.556190,2.152454,1.670549
3.034066,2.526374,2.144396,1.636703
3.017949,2.553773,2.121026,1.656850
3.031648,2.539267,2.131502,1.639121
3.026813,2.548938,2.133114,1.655238
3.043736,2.567472,2.139560,1.663297
3.032454,2.544103,2.133919,1.645568
3.034066,2.556190,2.141978,1.664103
3.025202,2.556996,2.126667,1.658462
3.051795,2.570696,2.146813,1.665714
3.013113,2.525568,2.131502,1.643956
3.057436,2.559414,2.151648,1.653626
3.036484,2.542491,2.154066,1.660073
3.026007,2.543297,2.144396,1.661685
3.038095,2.548132,2.152454,1.662491
3.055018,2.552161,2.165348,1.662491
3.030037,2.543297,2.140366,1.653626
3.024396,2.547326,2.147619,1.670549
3.042125,2.556996,2.137143,1.652015
3.038901,2.562637,2.148425,1.672161
3.047765,2.556190,2.154066,1.662491
3.017949,2.561831,2.127473,1.671355
3.047765,2.536850,2.147619,1.636703
3.038095,2.545714,2.142784,1.650403
3.029231,2.543297,2.152454,1.666520
3.037289,2.540879,2.147619,1.651209
3.042930,2.530403,2.153260,1.640733
3.034872,2.546520,2.152454,1.664103
3.040513,2.554579,2.139560,1.653626
3.022784,2.537656,2.146813,1.661685
3.050183,2.534432,2.152454,1.636703
3.033260,2.545714,2.126667,1.639121
3.052601,2.560220,2.154872,1.662491
3.041319,2.563443,2.134725,1.656850
3.027619,2.537656,2.133919,1.643956
3.027619,2.540073,2.131502,1.643956
3.034872,2.537656,2.136337,1.639121
3.017949,2.527985,2.126667,1.636703
3.042930,2.523956,2.141978,1.623004
3.018754,2.532015,2.127473,1.640733
3.019560,2.521538,2.129890,1.631868
3.041319,2.537656,2.140366,1.636703
3.006667,2.520733,2.121831,1.635897
3.017143,2.527179,2.113773,1.623810
3.045348,2.536044,2.137143,1.627839
3.033260,2.541685,2.130696,1.639121
3.019560,2.523956,2.115385,1.619780
3.018754,2.527179,2.116190,1.624615
3.048571,2.537656,2.140366,1.629451
3.030843,2.515898,2.141172,1.626227
3.042125,2.545714,2.121831,1.625421
3.016337,2.519927,2.122637,1.626227
3.021978,2.507033,2.127473,1.612527
3.050183,2.536850,2.135531,1.622198
3.040513,2.520733,2.145201,1.625421
3.016337,2.511868,2.122637,1.618168
3.031648,2.531209,2.114579,1.614139
3.047765,2.523956,2.134725,1.610916
3.021172,2.524762,2.122637,1.626227
3.025202,2.539267,2.124249,1.638315
3.034066,2.519121,2.122637,1.607692
3.010696,2.515898,2.116190,1.621392
3.033260,2.537656,2.126667,1.631062
3.021978,2.519927,2.126667,1.624615
3.023590,2.526374,2.133919,1.636703
3.021978,2.525568,2.119414,1.623004
3.034066,2.520733,2.125861,1.612527
3.030843,2.532015,2.133919,1.635092
3.048571,2.529597,2.141978,1.623004
3.039707,2.549744,2.126667,1.636703
3.009084,2.513480,2.112161,1.616557
3.031648,2.529597,2.128278,1.626227
3.035678,2.532820,2.129084,1.626227
3.043736,2.533626,2.133919,1.623810
3.037289,2.548938,2.139560,1.651209
3.036484,2.520733,2.128278,1.612527
3.029231,2.530403,2.127473,1.628645
3.021978,2.531209,2.131502,1.640733
3.012308,2.521538,2.116996,1.626227
3.045348,2.536850,2.137143,1.628645
3.014725,2.509450,2.126667,1.621392
3.038095,2.540879,2.133919,1.636703
3.032454,2.518315,2.136337,1.622198
3.021978,2.520733,2.130696,1.629451
3.023590,2.526374,2.133919,1.636703
3.026007,2.527985,2.125861,1.627839
3.025202,2.536850,2.126667,1.638315
3.041319,2.536044,2.140366,1.635092
3.020366,2.526374,2.130696,1.636703
3.027619,2.515898,2.136337,1.624615
3.007473,2.510257,2.106520,1.609304
3.029231,2.517509,2.131502,1.619780
3.032454,2.531209,2.128278,1.627033
3.038901,2.540073,2.135531,1.636703
3.034872,2.517509,2.135531,1.618168
3.029231,2.527179,2.112967,1.610916
3.038901,2.536044,2.125055,1.622198
3.033260,2.520733,2.126667,1.614139
3.010696,2.525568,2.121026,1.635897
3.017949,2.521538,2.109744,1.613333
3.027619,2.525568,2.122637,1.620586
3.025202,2.519121,2.125055,1.618974
3.033260,2.515092,2.126667,1.608498
3.006667,2.511868,2.113773,1.618974
3.039707,2.536850,2.124249,1.621392
3.016337,2.518315,2.116190,1.618168
3.017949,2.502198,2.126667,1.610916
3.021978,2.505421,2.128278,1.611722
3.030037,2.523150,2.125861,1.618974
3.038901,2.531209,2.123443,1.615751
3.021172,2.523150,2.108938,1.610916
3.026007,2.509450,2.118608,1.602051
3.040513,2.522344,2.127473,1.609304
3.023590,2.507839,2.128278,1.612527
3.019560,2.518315,2.104908,1.603663
3.027619,2.525568,2.113773,1.611722
3.019560,2.508645,2.116190,1.605275
3.011502,2.512674,2.104908,1.606081
3.022784,2.509450,2.124249,1.610916
3.041319,2.530403,2.113773,1.602857
3.016337,2.501392,2.101685,1.586740
3.045348,2.515092,2.127473,1.597216
3.026813,2.519927,2.109744,1.602857
3.033260,2.518315,2.122637,1.607692
3.024396,2.506227,2.116996,1.598828
3.034872,2.504615,2.109744,1.579487
3.020366,2.502198,2.112161,1.593993
3.037289,2.513480,2.124249,1.600440
3.017143,2.517509,2.099267,1.599634
3.017143,2.498974,2.099267,1.581099
3.017143,2.502198,2.100073,1.585128
3.030037,2.516703,2.109744,1.596410
3.028425,2.499780,2.112967,1.584322
3.013113,2.508645,2.104908,1.600440
3.031648,2.509450,2.106520,1.584322
3.017143,2.494945,2.101685,1.579487
3.005861,2.496557,2.095238,1.585934
3.030843,2.504615,2.109744,1.583516
3.030037,2.494139,2.112967,1.577070
3.022784,2.503809,2.095238,1.576264
3.029231,2.517509,2.096044,1.584322
3.030843,2.501392,2.114579,1.585128
3.001026,2.497363,2.096044,1.592381
3.014725,2.503004,2.108132,1.596410
3.017143,2.509450,2.089597,1.581905
3.016337,2.497363,2.100073,1.581099
3.023590,2.495751,2.100879,1.573040
3.005055,2.490110,2.088791,1.573846
3.016337,2.502198,2.100879,1.586740
3.019560,2.493333,2.090403,1.564176
3.021172,2.482857,2.105714,1.567399
2.997802,2.482857,2.092820,1.577875
3.030843,2.500586,2.102491,1.572234
3.009890,2.511868,2.087179,1.589157
3.021172,2.482051,2.100073,1.560952
3.017143,2.491722,2.092820,1.567399
3.017949,2.487692,2.102491,1.572234
3.011502,2.481246,2.096850,1.566593
3.026007,2.484469,2.108132,1.566593
3.001026,2.476410,2.084762,1.560147
3.016337,2.478828,2.100879,1.563370
3.017143,2.494945,2.101685,1.579487
3.016337,2.476410,2.098462,1.558535
3.000220,2.495751,2.084762,1.580293
3.033260,2.482051,2.097656,1.546447
3.014725,2.483663,2.098462,1.567399
3.017143,2.493333,2.087179,1.563370
3.004249,2.483663,2.083150,1.562564
3.017143,2.471575,2.100879,1.555311
3.040513,2.487692,2.100879,1.548059
3.013919,2.463516,2.100879,1.550476
3.003443,2.488498,2.087179,1.572234
3.017949,2.484469,2.088791,1.555311
3.030037,2.488498,2.100073,1.558535
3.017949,2.488498,2.087985,1.558535
3.008278,2.478828,2.087985,1.558535
3.022784,2.477216,2.092015,1.546447
3.005055,2.486081,2.085568,1.566593
3.012308,2.480440,2.085568,1.553700
3.025202,2.489304,2.090403,1.554505
3.026813,2.479634,2.092820,1.545641
3.024396,2.461099,2.104103,1.540806
2.996191,2.470769,2.079927,1.554505
3.021172,2.478828,2.088791,1.546447
2.998608,2.462711,2.076703,1.540806
3.021172,2.472381,2.088791,1.540000
3.017949,2.472381,2.079121,1.533553
2.985714,2.455458,2.077509,1.547253
2.998608,2.474798,2.070256,1.546447
3.005055,2.478828,2.071062,1.544835
2.999414,2.471575,2.083956,1.556117
3.023590,2.476410,2.093626,1.546447
3.005055,2.457875,2.091209,1.544029
3.012308,2.454652,2.092015,1.534359
3.007473,2.468352,2.092015,1.552894
3.002637,2.463516,2.087179,1.548059
3.004249,2.476410,2.076703,1.548864
3.005861,2.458681,2.092015,1.544835
3.002637,2.476410,2.070256,1.544029
2.996191,2.474798,2.067839,1.546447
2.996996,2.465128,2.067033,1.535165
3.016337,2.471575,2.085568,1.540806
3.004249,2.458681,2.083150,1.537582
3.012308,2.483663,2.075092,1.546447
3.009084,2.464322,2.080733,1.535971
3.004249,2.463516,2.083150,1.542418
3.006667,2.457070,2.079121,1.529524
3.004249,2.460293,2.074286,1.530330
3.013113,2.453040,2.072674,1.512601
3.006667,2.455458,2.063004,1.511795
3.000220,2.468352,2.069451,1.537582
2.988938,2.472381,2.050110,1.533553
3.009890,2.468352,2.071062,1.529524
2.996996,2.432894,2.077509,1.513407
3.003443,2.463516,2.069451,1.529524
3.003443,2.451429,2.075092,1.523077
2.988132,2.457070,2.063004,1.531941
3.006667,2.477216,2.067033,1.537582
3.021172,2.460293,2.072674,1.511795
2.980073,2.439341,2.053333,1.512601
2.992967,2.442564,2.058168,1.507766
3.003443,2.442564,2.072674,1.511795
2.990550,2.450623,2.063004,1.523077
2.987326,2.444982,2.054945,1.512601
3.001026,2.452235,2.064615,1.515824
2.994579,2.453846,2.053333,1.512601
2.995385,2.456264,2.046886,1.507766
3.004249,2.466740,2.071062,1.533553
2.984908,2.428864,2.063810,1.507766
2.997802,2.444982,2.056557,1.503736
3.007473,2.447399,2.063810,1.503736
2.997802,2.451429,2.054139,1.507766
3.017949,2.456264,2.073480,1.511795
2.996191,2.438535,2.052527,1.494872
2.975238,2.430476,2.043663,1.498901
2.996191,2.449011,2.054945,1.507766
2.988938,2.449011,2.045275,1.505348
2.996996,2.431282,2.073480,1.507766
3.003443,2.455458,2.044469,1.496484
2.994579,2.455458,2.047692,1.508571
2.980879,2.436923,2.046886,1.502930
2.988132,2.449817,2.042051,1.503736
2.997802,2.456264,2.049304,1.507766
2.970403,2.440952,2.029157,1.499707
2.991355,2.457875,2.041245,1.507766
2.976044,2.448205,2.035604,1.507766
2.977656,2.439341,2.037216,1.498901
2.974432,2.446594,2.041245,1.513407
2.991355,2.448205,2.050110,1.506960
2.978462,2.460293,2.038828,1.520659
3.005055,2.454652,2.072674,1.522271
2.998608,2.464322,2.063004,1.528718
3.004249,2.473993,2.063004,1.532747
2.997802,2.490916,2.054139,1.547253
3.017949,2.488498,2.076703,1.547253
3.018754,2.499780,2.077509,1.558535
3.014725,2.490110,2.085568,1.560952
3.012308,2.514286,2.082344,1.584322
3.025202,2.515092,2.083956,1.573846
3.018754,2.517509,2.090403,1.589157
3.031648,2.523150,2.103297,1.594799
3.029231,2.526374,2.113773,1.610916
3.039707,2.532820,2.114579,1.607692
3.039707,2.533626,2.112161,1.606081
3.012308,2.524762,2.110549,1.623004
3.030037,2.540879,2.110549,1.621392
3.035678,2.540073,2.121831,1.626227
3.044542,2.548938,2.127473,1.631868
3.040513,2.556190,2.121831,1.637509
3.035678,2.566667,2.121026,1.652015
3.040513,2.557802,2.121831,1.639121
3.021172,2.540879,2.116190,1.635897
3.034066,2.557802,2.121026,1.644762
3.040513,2.550550,2.132308,1.642344
3.058242,2.552967,2.147619,1.642344
3.034872,2.542491,2.133114,1.640733
3.056630,2.572308,2.142784,1.658462
3.046960,2.568278,2.138755,1.660073
3.032454,2.560220,2.124249,1.652015
3.035678,2.570696,2.129084,1.664103
3.044542,2.568278,2.140366,1.664103
3.037289,2.566667,2.137949,1.667326
3.041319,2.570696,2.138755,1.668132
3.046154,2.562637,2.140366,1.656850
3.047765,2.589231,2.133919,1.675385
3.053406,2.578755,2.137143,1.662491
3.050183,2.569890,2.145201,1.664908
3.037289,2.569890,2.130696,1.663297
3.049377,2.581172,2.138755,1.670549
3.051795,2.577949,2.141172,1.667326
3.038095,2.578755,2.134725,1.675385
3.057436,2.590037,2.143590,1.676190
3.044542,2.590037,2.131502,1.676996
3.046960,2.584396,2.132308,1.669744
3.042930,2.568278,2.141172,1.666520
3.054213,2.576337,2.141172,1.663297
3.034872,2.565861,2.130696,1.661685
3.031648,2.577143,2.116996,1.662491
3.042125,2.565861,2.138755,1.662491
3.041319,2.560220,2.138755,1.657656
3.043736,2.579561,2.133919,1.669744
3.041319,2.579561,2.139560,1.677802
3.036484,2.569890,2.129084,1.662491
3.030037,2.565861,2.126667,1.662491
3.039707,2.568278,2.134725,1.663297
3.034066,2.556190,2.141978,1.664103
3.029231,2.552161,2.131502,1.654432
3.044542,2.566667,2.140366,1.662491
3.048571,2.570696,2.137949,1.660073
3.042125,2.582784,2.132308,1.672967
3.037289,2.573919,2.133919,1.670549
3.051795,2.574725,2.150842,1.673773
3.035678,2.556190,2.143590,1.664103
3.042125,2.586813,2.129084,1.673773
3.030037,2.565055,2.135531,1.670549
3.050183,2.586813,2.146813,1.683443
3.016337,2.553773,2.137143,1.674579
3.041319,2.574725,2.136337,1.669744
3.032454,2.563443,2.140366,1.671355
3.042930,2.563443,2.150842,1.671355
3.034872,2.559414,2.134725,1.659267
3.051795,2.570696,2.148425,1.667326
3.041319,2.557802,2.141172,1.657656
3.035678,2.563443,2.143590,1.671355
3.028425,2.555385,2.137949,1.664908
3.034066,2.557802,2.138755,1.662491
3.030843,2.572308,2.121026,1.662491
3.054213,2.565861,2.150842,1.662491
3.043736,2.556190,2.138755,1.651209
3.031648,2.548132,2.141978,1.658462
3.041319,2.554579,2.137143,1.650403
3.039707,2.559414,2.135531,1.655238
3.037289,2.548132,2.125861,1.636703
3.048571,2.561026,2.138755,1.651209
3.017949,2.533626,2.121026,1.636703
3.025202,2.557802,2.121026,1.653626
3.033260,2.552967,2.125861,1.645568
3.046154,2.549744,2.131502,1.635092
3.037289,2.539267,2.130696,1.632674
3.013919,2.522344,2.120220,1.628645
3.041319,2.544909,2.130696,1.634286
3.028425,2.540879,2.118608,1.631062
3.021978,2.527985,2.113773,1.619780
3.027619,2.537656,2.126667,1.636703
3.039707,2.540073,2.129084,1.629451
3.031648,2.540073,2.128278,1.636703
3.036484,2.537656,2.121026,1.622198
3.033260,2.546520,2.119414,1.632674
3.012308,2.504615,2.118608,1.610916
3.034872,2.527179,2.119414,1.611722
3.031648,2.539267,2.125055,1.632674
3.033260,2.545714,2.113773,1.626227
3.017143,2.538461,2.106520,1.627839
3.037289,2.551355,2.122637,1.636703
3.041319,2.537656,2.126667,1.623004
3.049377,2.545714,2.126667,1.623004
3.030843,2.543297,2.115385,1.627839
3.028425,2.537656,2.112967,1.622198
3.036484,2.541685,2.126667,1.631868
3.053406,2.567472,2.126667,1.640733
3.034872,2.534432,2.125055,1.624615
3.026007,2.540879,2.112967,1.627839
3.031648,2.529597,2.124249,1.622198
3.018754,2.527985,2.116190,1.625421
3.030037,2.531209,2.126667,1.627839
3.026007,2.532820,2.125861,1.632674
3.026007,2.531209,2.127473,1.632674
3.031648,2.523150,2.128278,1.619780
3.033260,2.527179,2.127473,1.621392
3.047765,2.556996,2.134725,1.643956
3.026007,2.539267,2.119414,1.632674
3.016337,2.530403,2.108938,1.623004
3.015531,2.524762,2.118608,1.627839
3.038901,2.538461,2.129084,1.628645
3.031648,2.541685,2.113773,1.623810
3.027619,2.547326,2.125055,1.644762
3.046960,2.525568,2.132308,1.610916
3.033260,2.535238,2.125861,1.627839
3.034066,2.527179,2.129084,1.622198
3.029231,2.532820,2.130696,1.634286
3.034872,2.532015,2.131502,1.628645
3.036484,2.531209,2.124249,1.618974
3.026813,2.536044,2.113773,1.623004
3.041319,2.525568,2.133919,1.618168
3.014725,2.536044,2.113773,1.635092
3.042125,2.550550,2.126667,1.635092
3.013113,2.529597,2.103297,1.619780
3.014725,2.518315,2.114579,1.618168
3.022784,2.537656,2.119414,1.634286
3.042125,2.539267,2.126667,1.623810
3.005055,2.509450,2.111355,1.615751
3.027619,2.527985,2.121026,1.621392
3.018754,2.535238,2.108938,1.625421
3.023590,2.529597,2.115385,1.621392
3.038095,2.538461,2.117802,1.618168
3.050183,2.548132,2.134725,1.632674
3.030843,2.540073,2.113773,1.623004
3.039707,2.529597,2.124249,1.614139
3.020366,2.539267,2.117802,1.636703
3.044542,2.539267,2.129084,1.623810
3.012308,2.538461,2.099267,1.625421
3.033260,2.540879,2.115385,1.623004
3.032454,2.540073,2.114579,1.622198
3.027619,2.539267,2.114579,1.626227
3.026813,2.532015,2.111355,1.616557
3.026813,2.528791,2.113773,1.615751
3.033260,2.541685,2.104908,1.613333
3.045348,2.540073,2.121831,1.616557
3.030037,2.538461,2.114579,1.623004
3.027619,2.540879,2.112161,1.625421
3.032454,2.523956,2.118608,1.610110
3.026007,2.521538,2.109744,1.605275
3.026007,2.519927,2.114579,1.608498
3.033260,2.521538,2.126667,1.614945
3.026813,2.529597,2.110549,1.613333
3.042125,2.526374,2.126667,1.610916
3.024396,2.529597,2.103297,1.608498
3.029231,2.523956,2.114579,1.609304
3.019560,2.523150,2.111355,1.614945
3.019560,2.517509,2.114579,1.612527
3.009084,2.524762,2.105714,1.621392
3.000220,2.518315,2.092820,1.610916
3.026813,2.524762,2.114579,1.612527
3.012308,2.517509,2.105714,1.610916
3.036484,2.531209,2.121831,1.616557
3.040513,2.522344,2.114579,1.596410
3.023590,2.530403,2.102491,1.609304
3.036484,2.531209,2.103297,1.598022
3.023590,2.525568,2.091209,1.593187
3.034066,2.522344,2.121026,1.609304
3.030843,2.525568,2.115385,1.610110
3.031648,2.518315,2.113773,1.600440
3.021172,2.524762,2.106520,1.610110
3.014725,2.519121,2.100879,1.605275
3.022784,2.510257,2.108132,1.595604
3.028425,2.521538,2.100073,1.593187
3.015531,2.522344,2.098462,1.605275
3.021172,2.518315,2.100879,1.598022
3.016337,2.500586,2.100879,1.585128
3.013919,2.506227,2.103297,1.595604
2.997802,2.481246,2.100879,1.584322
3.023590,2.515898,2.106520,1.598828
3.005055,2.512674,2.095238,1.602857
3.021978,2.503004,2.106520,1.587546
3.008278,2.499780,2.108938,1.600440
3.030037,2.514286,2.109744,1.593993
3.031648,2.516703,2.102491,1.587546
3.005861,2.497363,2.096044,1.587546
3.025202,2.505421,2.112161,1.592381
3.019560,2.503004,2.113773,1.597216
3.013113,2.494139,2.108132,1.589157
3.022784,2.525568,2.095238,1.598022
3.030037,2.515092,2.104908,1.589963
3.025202,2.511868,2.102491,1.589157
3.030037,2.523150,2.105714,1.598828
3.015531,2.497363,2.103297,1.585128
3.024396,2.497363,2.112161,1.585128
3.014725,2.511062,2.101685,1.598022
3.029231,2.501392,2.113773,1.585934
3.029231,2.512674,2.105714,1.589157
3.039707,2.532015,2.109744,1.602051
3.018754,2.504615,2.101685,1.587546
3.018754,2.498974,2.103297,1.583516
3.004249,2.500586,2.097656,1.593993
3.005861,2.492527,2.097656,1.584322
3.021978,2.506227,2.098462,1.582711
3.005861,2.509450,2.089597,1.593187
3.015531,2.494139,2.099267,1.577875
3.002637,2.503004,2.094432,1.594799
2.998608,2.473187,2.105714,1.580293
3.015531,2.499780,2.100879,1.585128
3.017143,2.498168,2.098462,1.579487
3.013113,2.487692,2.099267,1.573846
3.013919,2.493333,2.100073,1.579487
2.996191,2.493333,2.092820,1.589963
3.027619,2.500586,2.099267,1.572234
3.010696,2.505421,2.087985,1.582711
3.005861,2.490110,2.092820,1.577070
3.007473,2.490110,2.090403,1.573040
3.033260,2.490916,2.104908,1.562564
3.017143,2.499780,2.088791,1.571429
3.000220,2.470769,2.096044,1.566593
3.011502,2.506227,2.088791,1.583516
2.996996,2.476410,2.090403,1.569817
2.995385,2.485275,2.088791,1.578681
3.005055,2.500586,2.082344,1.577875
3.018754,2.486081,2.105714,1.573040
3.023590,2.488498,2.093626,1.558535
2.999414,2.483663,2.088791,1.573040
3.018754,2.486887,2.101685,1.569817
3.019560,2.485275,2.093626,1.559341
3.008278,2.473993,2.092820,1.558535
3.023590,2.482857,2.099267,1.558535
3.011502,2.473993,2.096044,1.558535
3.008278,2.480440,2.087179,1.559341
3.013919,2.490916,2.082344,1.559341
3.005861,2.500586,2.085568,1.580293
3.001832,2.480440,2.080733,1.559341
3.009890,2.490110,2.086374,1.566593
3.014725,2.486887,2.090403,1.562564
3.004249,2.486887,2.087179,1.569817
2.996996,2.472381,2.079121,1.554505
3.013113,2.481246,2.096044,1.564176
3.012308,2.474798,2.095238,1.557729
2.998608,2.477216,2.080733,1.559341
3.006667,2.480440,2.080733,1.554505
3.005861,2.485275,2.075092,1.554505
2.992161,2.481246,2.072674,1.561758
2.992967,2.480440,2.075897,1.563370
3.009890,2.470769,2.085568,1.546447
3.004249,2.478828,2.075897,1.550476
3.001832,2.464322,2.075092,1.537582
3.006667,2.480440,2.073480,1.547253
2.999414,2.463516,2.083956,1.548059
3.009890,2.484469,2.067033,1.541612
3.008278,2.482857,2.070256,1.544835
3.006667,2.472381,2.078315,1.544029
3.011502,2.478022,2.080733,1.547253
3.008278,2.476410,2.078315,1.546447
3.018754,2.486081,2.071062,1.538388
3.006667,2.465934,2.070256,1.529524
2.990550,2.473187,2.058168,1.540806
2.997802,2.466740,2.069451,1.538388
3.014725,2.469963,2.080733,1.535971
2.994579,2.485275,2.048498,1.539194
3.006667,2.465934,2.070256,1.529524
2.988132,2.452235,2.067033,1.531136
2.984908,2.439341,2.065421,1.519853
3.001832,2.467546,2.075092,1.540806
3.007473,2.468352,2.067033,1.527912
2.995385,2.454652,2.067033,1.526300
2.990550,2.469963,2.056557,1.535971
2.991355,2.474798,2.050110,1.533553
2.988938,2.442564,2.064615,1.518242
2.984908,2.451429,2.049304,1.515824
3.004249,2.473993,2.063810,1.533553
2.996996,2.473993,2.063810,1.540806
3.008278,2.459487,2.074286,1.525494
3.003443,2.466740,2.072674,1.535971
3.013919,2.470769,2.072674,1.529524
3.017143,2.481246,2.075897,1.540000
3.000220,2.466740,2.069451,1.535971
3.005861,2.476410,2.066227,1.536777
2.981685,2.460293,2.063810,1.542418
3.021978,2.482857,2.080733,1.541612
3.001832,2.480440,2.070256,1.548864
3.010696,2.483663,2.079927,1.552894
2.989743,2.480440,2.072674,1.563370
3.030037,2.498974,2.099267,1.568205
3.016337,2.485275,2.092820,1.561758
3.028425,2.513480,2.100879,1.585934
3.017143,2.499780,2.099267,1.581905
3.018754,2.511868,2.096044,1.589157
3.017949,2.514286,2.101685,1.598022
3.015531,2.507839,2.101685,1.593993
3.029231,2.533626,2.106520,1.610916
3.044542,2.544103,2.118608,1.618168
3.018754,2.520733,2.113773,1.615751
3.038901,2.536850,2.127473,1.625421
3.026007,2.544909,2.112967,1.631868
3.030037,2.538461,2.113773,1.622198
3.035678,2.544103,2.125861,1.634286
3.022784,2.551355,2.116996,1.645568
3.033260,2.552161,2.117802,1.636703
3.027619,2.561831,2.121026,1.655238
3.032454,2.554579,2.128278,1.650403
3.030037,2.554579,2.114579,1.639121
3.034066,2.559414,2.132308,1.657656
3.051795,2.575531,2.138755,1.662491
3.042125,2.569890,2.126667,1.654432
3.031648,2.552161,2.122637,1.643150
3.042930,2.560220,2.133114,1.650403
3.054213,2.569890,2.147619,1.663297
3.031648,2.557802,2.126667,1.652820
3.044542,2.557802,2.129084,1.642344
3.028425,2.562637,2.138755,1.672967
3.035678,2.570696,2.137143,1.672161
3.038901,2.562637,2.146813,1.670549
3.034066,2.556996,2.130696,1.653626
3.043736,2.575531,2.128278,1.660073
3.026813,2.572308,2.128278,1.673773
3.058242,2.577949,2.144396,1.664103
3.040513,2.565055,2.137143,1.661685
3.035678,2.552161,2.137949,1.654432
3.042125,2.579561,2.127473,1.664908
3.046960,2.561831,2.144396,1.659267
3.057436,2.573113,2.148425,1.664103
3.030843,2.565055,2.133114,1.667326
3.031648,2.565861,2.129084,1.663297
3.047765,2.567472,2.140366,1.660073
3.036484,2.564249,2.135531,1.663297
3.037289,2.552161,2.138755,1.653626
3.047765,2.565861,2.144396,1.662491
3.045348,2.577949,2.137143,1.669744
3.042930,2.558608,2.134725,1.650403
3.058242,2.569890,2.143590,1.655238
3.028425,2.567472,2.123443,1.662491
3.034872,2.559414,2.145201,1.669744
3.038095,2.568278,2.126667,1.656850
3.031648,2.556996,2.137143,1.662491
3.034872,2.561831,2.135531,1.662491
3.026007,2.558608,2.130696,1.663297
3.039707,2.576337,2.138755,1.675385
3.038095,2.552967,2.130696,1.645568
3.034066,2.568278,2.125861,1.660073
3.044542,2.565055,2.134725,1.655238
3.038095,2.571502,2.128278,1.661685
3.042125,2.584396,2.133919,1.676190
3.047765,2.569890,2.135531,1.657656
3.021978,2.547326,2.127473,1.652820
3.031648,2.544909,2.128278,1.641539
3.037289,2.563443,2.125055,1.651209
3.016337,2.571502,2.122637,1.677802
3.040513,2.553773,2.121026,1.634286
3.036484,2.565861,2.121026,1.650403
3.042125,2.568278,2.127473,1.653626
3.038901,2.553773,2.130696,1.645568
3.013919,2.547326,2.118608,1.652015
3.030843,2.550550,2.116996,1.636703
3.030037,2.570696,2.113773,1.654432
3.041319,2.542491,2.137949,1.639121
3.034066,2.546520,2.118608,1.631062
3.026007,2.545714,2.119414,1.639121
3.030843,2.539267,2.113773,1.622198
3.042125,2.544103,2.125861,1.627839
3.015531,2.543297,2.105714,1.633480
3.043736,2.547326,2.116190,1.619780
3.034066,2.554579,2.116190,1.636703
3.042930,2.552161,2.116190,1.625421
3.037289,2.532015,2.117802,1.612527
3.042930,2.539267,2.118608,1.614945
3.033260,2.538461,2.116190,1.621392
3.021978,2.537656,2.108132,1.623810
3.029231,2.535238,2.105714,1.611722
3.041319,2.537656,2.125055,1.621392
3.034066,2.541685,2.121026,1.628645
3.043736,2.564249,2.115385,1.635897
3.026007,2.521538,2.116190,1.611722
3.026007,2.537656,2.106520,1.618168
3.024396,2.525568,2.109744,1.610916
3.014725,2.513480,2.113773,1.612527
3.024396,2.541685,2.108938,1.626227
3.028425,2.518315,2.112967,1.602857
3.032454,2.528791,2.114579,1.610916
3.046154,2.548938,2.125055,1.627839
3.046960,2.530403,2.127473,1.610916
3.017143,2.540879,2.111355,1.635092
3.040513,2.531209,2.124249,1.614945
3.029231,2.541685,2.112967,1.625421
3.030037,2.552967,2.114579,1.637509
3.034872,2.542491,2.114579,1.622198
3.038095,2.550550,2.122637,1.635092
3.037289,2.559414,2.121831,1.643956
3.034872,2.553773,2.113773,1.632674
3.041319,2.534432,2.125861,1.618974
3.030037,2.527179,2.114579,1.611722
3.034872,2.531209,2.135531,1.631868
3.042125,2.544103,2.127473,1.629451
3.045348,2.557802,2.128278,1.640733
3.005055,2.527985,2.111355,1.634286
3.046154,2.548132,2.134725,1.636703
3.030843,2.546520,2.122637,1.638315
3.040513,2.565055,2.126667,1.651209
3.024396,2.542491,2.116190,1.634286
3.046154,2.556996,2.130696,1.641539
3.031648,2.553773,2.116996,1.639121
3.031648,2.559414,2.126667,1.654432
3.047765,2.539267,2.127473,1.618974
3.027619,2.548132,2.113773,1.634286
3.036484,2.537656,2.126667,1.627839
3.038901,2.546520,2.123443,1.631062
3.042125,2.548132,2.126667,1.632674
3.042930,2.552161,2.126667,1.635897
3.046960,2.565055,2.125861,1.643956
3.026007,2.552161,2.111355,1.637509
3.037289,2.546520,2.121831,1.631062
3.029231,2.547326,2.118608,1.636703
3.026007,2.548132,2.113773,1.635897
3.035678,2.536850,2.126667,1.627839
3.038901,2.552967,2.123443,1.637509
3.026813,2.544103,2.115385,1.632674
3.032454,2.535238,2.116996,1.619780
3.031648,2.529597,2.118608,1.616557
3.027619,2.530403,2.116996,1.619780
3.041319,2.538461,2.125861,1.623004
3.027619,2.537656,2.114579,1.624615
3.021172,2.515898,2.127473,1.622198
3.042125,2.556190,2.126667,1.640733
3.030843,2.538461,2.115385,1.623004
3.030037,2.540879,2.114579,1.625421
3.027619,2.536850,2.113773,1.623004
3.046154,2.548132,2.125861,1.627839
3.027619,2.545714,2.112161,1.630256
3.013919,2.533626,2.106520,1.626227
3.031648,2.530403,2.123443,1.622198
3.022784,2.533626,2.111355,1.622198
3.017949,2.542491,2.102491,1.627033
3.032454,2.530403,2.112967,1.610916
3.029231,2.541685,2.114579,1.627033
3.034872,2.534432,2.111355,1.610916
3.032454,2.533626,2.116996,1.618168
3.039707,2.548938,2.111355,1.620586
3.016337,2.530403,2.096044,1.610110
3.028425,2.543297,2.108938,1.623810
3.040513,2.542491,2.117802,1.619780
3.037289,2.536044,2.119414,1.618168
3.022784,2.541685,2.104908,1.623810
3.039707,2.533626,2.119414,1.613333
3.022784,2.533626,2.111355,1.622198
3.021172,2.540879,2.108132,1.627839
3.035678,2.528791,2.118608,1.611722
3.032454,2.538461,2.113773,1.619780
3.027619,2.540073,2.100073,1.612527
3.024396,2.529597,2.113773,1.618974
3.039707,2.536850,2.116190,1.613333
3.024396,2.537656,2.109744,1.623004
3.035678,2.549744,2.105714,1.619780
3.017143,2.542491,2.093626,1.618974
3.021172,2.540073,2.106520,1.625421
3.035678,2.544103,2.113773,1.622198
3.029231,2.528791,2.113773,1.613333
3.031648,2.536850,2.113773,1.618974
3.016337,2.524762,2.100879,1.609304
3.030037,2.548132,2.106520,1.624615
3.033260,2.536044,2.102491,1.605275
3.025202,2.529597,2.111355,1.615751
3.026007,2.529597,2.109744,1.613333
3.026007,2.536044,2.108132,1.618168
3.024396,2.520733,2.101685,1.598022
3.035678,2.529597,2.118608,1.612527
3.010696,2.513480,2.098462,1.601245
3.021172,2.528791,2.100073,1.607692
3.038901,2.537656,2.111355,1.610110
3.039707,2.536850,2.103297,1.600440
3.025202,2.517509,2.109744,1.602051
3.021978,2.528791,2.106520,1.613333
3.026007,2.517509,2.098462,1.589963
3.024396,2.535238,2.092820,1.603663
3.022784,2.515092,2.100073,1.592381
3.029231,2.530403,2.104908,1.606081
3.021978,2.526374,2.100879,1.605275
3.028425,2.526374,2.104103,1.602051
3.031648,2.529597,2.100879,1.598828
3.027619,2.540073,2.098462,1.610916
3.024396,2.522344,2.104908,1.602857
3.030843,2.526374,2.102491,1.598022
3.042125,2.536850,2.103297,1.598022
3.013919,2.511062,2.096850,1.593993
3.031648,2.517509,2.100073,1.585934
3.019560,2.511868,2.092820,1.585128
3.009890,2.503809,2.095238,1.589157
3.020366,2.511868,2.093626,1.585128
3.026813,2.511062,2.098462,1.582711
3.021172,2.522344,2.096850,1.598022
3.036484,2.521538,2.105714,1.590769
3.024396,2.527985,2.098462,1.602051
3.015531,2.522344,2.087179,1.593993
3.020366,2.518315,2.089597,1.587546
3.025202,2.525568,2.095238,1.595604
3.015531,2.529597,2.092820,1.606887
3.017143,2.509450,2.092820,1.585128
3.029231,2.510257,2.102491,1.583516
3.016337,2.506227,2.092015,1.581905
3.019560,2.509450,2.097656,1.587546
3.017949,2.506227,2.096850,1.585128
3.020366,2.526374,2.104908,1.610916
3.004249,2.517509,2.076703,1.589963
3.026813,2.514286,2.102491,1.589963
3.034066,2.519927,2.096850,1.582711
3.001832,2.486887,2.087179,1.572234
3.011502,2.502198,2.092015,1.582711
3.010696,2.504615,2.082344,1.576264
3.030037,2.527985,2.089597,1.587546
3.020366,2.502198,2.103297,1.585128
3.022784,2.507839,2.092820,1.577875
2.988132,2.497363,2.076703,1.585934
3.016337,2.503004,2.086374,1.573040
3.014725,2.510257,2.088791,1.584322
3.009084,2.483663,2.087985,1.562564
3.021978,2.516703,2.086374,1.581099
3.012308,2.492527,2.092820,1.573040
3.028425,2.509450,2.087179,1.568205
3.029231,2.507839,2.089597,1.568205
3.013919,2.498168,2.085568,1.569817
3.000220,2.500586,2.084762,1.585128
3.027619,2.515092,2.096850,1.584322
3.038095,2.508645,2.100879,1.571429
3.022784,2.510257,2.095238,1.582711
3.012308,2.509450,2.087985,1.585128
3.022784,2.519121,2.092015,1.588352
3.023590,2.510257,2.087985,1.574652
3.016337,2.515092,2.077509,1.576264
3.003443,2.512674,2.076703,1.585934
3.006667,2.495751,2.077509,1.566593
2.994579,2.498974,2.075092,1.579487
3.005861,2.498974,2.083150,1.576264
3.012308,2.503004,2.071062,1.561758
3.020366,2.499780,2.087179,1.566593
3.029231,2.515898,2.091209,1.577875
3.012308,2.499780,2.085568,1.573040
3.013919,2.503004,2.080733,1.569817
3.031648,2.520733,2.087985,1.577070
3.033260,2.507839,2.100879,1.575458
3.014725,2.494139,2.082344,1.561758
3.001026,2.503809,2.075092,1.577875
3.016337,2.495751,2.079927,1.559341
3.021978,2.492527,2.079927,1.550476
3.013113,2.484469,2.085568,1.556923
3.014725,2.508645,2.073480,1.567399
3.007473,2.482051,2.084762,1.559341
3.017143,2.501392,2.075092,1.559341
3.018754,2.497363,2.075897,1.554505
3.022784,2.512674,2.079927,1.569817
3.005861,2.503809,2.075092,1.573040
3.006667,2.480440,2.085568,1.559341
2.998608,2.482857,2.071062,1.555311
3.017143,2.505421,2.075092,1.563370
2.994579,2.486081,2.075092,1.566593
3.006667,2.498168,2.075092,1.566593
3.013113,2.487692,2.088791,1.563370
2.993773,2.471575,2.064615,1.542418
3.013919,2.502198,2.073480,1.561758
3.005861,2.506227,2.067839,1.568205
2.996996,2.490916,2.071062,1.564982
3.005861,2.479634,2.076703,1.550476
3.017143,2.498168,2.079927,1.560952
2.999414,2.503004,2.064615,1.568205
3.017143,2.491722,2.086374,1.560952
3.013113,2.519927,2.074286,1.581099
3.013919,2.504615,2.092820,1.583516
3.026813,2.522344,2.086374,1.581905
3.026007,2.512674,2.092820,1.579487
3.006667,2.522344,2.087179,1.602857
3.026813,2.530403,2.099267,1.602857
3.032454,2.526374,2.111355,1.605275
3.019560,2.534432,2.092820,1.607692
3.030843,2.535238,2.106520,1.610916
3.031648,2.549744,2.108132,1.626227
3.023590,2.540073,2.108132,1.624615
3.043736,2.551355,2.126667,1.634286
3.026813,2.576337,2.100879,1.650403
3.027619,2.554579,2.116996,1.643956
3.032454,2.565055,2.122637,1.655238
3.035678,2.561831,2.128278,1.654432
3.040513,2.562637,2.135531,1.657656
3.021978,2.573919,2.118608,1.670549
3.038901,2.569890,2.121026,1.652015
3.022784,2.580366,2.122637,1.680220
3.046154,2.587619,2.132308,1.673773
3.026007,2.578755,2.126667,1.679414
3.042125,2.567472,2.137143,1.662491
3.031648,2.565055,2.128278,1.661685
3.042125,2.576337,2.140366,1.674579
3.046960,2.583590,2.148425,1.685055
3.039707,2.577143,2.145201,1.682637
3.022784,2.570696,2.125055,1.672967
3.054213,2.602930,2.138755,1.687473
3.036484,2.581978,2.141172,1.686667
3.038901,2.584396,2.137949,1.683443
3.037289,2.580366,2.143590,1.686667
3.041319,2.585202,2.139560,1.683443
3.038901,2.595678,2.131502,1.688278
3.036484,2.569890,2.146813,1.680220
3.022784,2.581172,2.130696,1.689084
3.067912,2.595678,2.160513,1.688278
3.048571,2.602124,2.129890,1.683443
3.042930,2.585202,2.151648,1.693919
3.058242,2.600513,2.143590,1.685861
3.044542,2.594066,2.139560,1.689084
3.060659,2.585202,2.152454,1.676996
3.034066,2.586813,2.131502,1.684249
3.048571,2.577949,2.145201,1.674579
3.067106,2.595678,2.154066,1.682637
3.036484,2.587619,2.137143,1.688278
3.055018,2.580366,2.148425,1.673773
3.023590,2.581172,2.126667,1.684249
3.063883,2.594066,2.152454,1.682637
3.050183,2.575531,2.146813,1.672161
3.038901,2.585202,2.140366,1.686667
3.034066,2.583590,2.138755,1.688278
3.050989,2.586007,2.139560,1.674579
3.045348,2.587619,2.141978,1.684249
3.028425,2.581172,2.137949,1.690696
3.042125,2.585202,2.145201,1.688278
3.055824,2.577949,2.152454,1.674579
3.042125,2.581978,2.140366,1.680220
3.034066,2.556996,2.144396,1.667326
3.040513,2.579561,2.135531,1.674579
3.034066,2.585202,2.150037,1.701172
3.045348,2.567472,2.144396,1.666520
3.060659,2.586813,2.149231,1.675385
3.051795,2.580366,2.151648,1.680220
3.027619,2.568278,2.133919,1.674579
3.040513,2.587619,2.141978,1.689084
3.055824,2.596483,2.145201,1.685861
3.038095,2.573113,2.136337,1.671355
3.048571,2.594066,2.141978,1.687473
3.026007,2.565861,2.130696,1.670549
3.044542,2.586813,2.137143,1.679414
3.037289,2.573113,2.127473,1.663297
3.035678,2.570696,2.127473,1.662491
3.026007,2.567472,2.131502,1.672967
3.045348,2.570696,2.137949,1.663297
3.041319,2.573919,2.138755,1.671355
3.040513,2.583590,2.129084,1.672161
3.037289,2.575531,2.126667,1.664908
3.061465,2.577143,2.146813,1.662491
3.038095,2.565861,2.134725,1.662491
3.030843,2.557802,2.135531,1.662491
3.040513,2.584396,2.126667,1.670549
3.042930,2.579561,2.125861,1.662491
3.041319,2.588425,2.127473,1.674579
3.026007,2.567472,2.125055,1.666520
3.035678,2.562637,2.130696,1.657656
3.037289,2.562637,2.129084,1.654432
3.042930,2.558608,2.129890,1.645568
3.039707,2.561026,2.129890,1.651209
3.046960,2.567472,2.133919,1.654432
3.026813,2.569890,2.125055,1.668132
3.031648,2.577949,2.116190,1.662491
3.050989,2.563443,2.126667,1.639121
3.042125,2.579561,2.117802,1.655238
3.042125,2.566667,2.126667,1.651209
3.027619,2.561831,2.127473,1.661685
3.055018,2.589231,2.126667,1.660879
3.044542,2.557802,2.129084,1.642344
3.021978,2.536044,2.118608,1.632674
3.022784,2.544909,2.114579,1.636703
3.017949,2.542491,2.126667,1.651209
3.050183,2.556190,2.121026,1.627033
3.035678,2.558608,2.114579,1.637509
3.038095,2.572308,2.121026,1.655238
3.036484,2.550550,2.125861,1.639927
3.044542,2.553773,2.135531,1.644762
3.035678,2.559414,2.112967,1.636703
3.046154,2.554579,2.126667,1.635092
3.035678,2.574725,2.119414,1.658462
3.026813,2.556190,2.115385,1.644762
3.034872,2.554579,2.124249,1.643956
3.043736,2.557802,2.121026,1.635092
3.040513,2.577949,2.119414,1.656850
3.032454,2.573113,2.121831,1.662491
3.045348,2.580366,2.126667,1.661685
3.038901,2.574725,2.114579,1.650403
3.041319,2.562637,2.121026,1.642344
3.032454,2.575531,2.114579,1.657656
3.036484,2.562637,2.125861,1.652015
3.046154,2.561026,2.135531,1.650403
3.040513,2.569890,2.129890,1.659267
3.021978,2.548938,2.113773,1.640733
3.052601,2.561831,2.137949,1.647179
3.031648,2.577949,2.116190,1.662491
3.028425,2.570696,2.121831,1.664103
3.044542,2.569084,2.125861,1.650403
3.027619,2.556190,2.113773,1.642344
3.035678,2.556996,2.125055,1.646374
3.038901,2.577949,2.122637,1.661685
3.034872,2.570696,2.124249,1.660073
3.046154,2.557802,2.130696,1.642344
3.026813,2.539267,2.113773,1.626227
3.038901,2.566667,2.130696,1.658462
3.023590,2.552161,2.124249,1.652820
3.040513,2.546520,2.138755,1.644762
3.050989,2.553773,2.133919,1.636703
3.035678,2.552967,2.124249,1.641539
3.034066,2.548132,2.122637,1.636703
3.028425,2.540073,2.121831,1.633480
3.043736,2.555385,2.130696,1.642344
3.026813,2.566667,2.111355,1.651209
3.027619,2.555385,2.112967,1.640733
3.032454,2.554579,2.114579,1.636703
3.033260,2.566667,2.117802,1.651209
3.038901,2.541685,2.132308,1.635092
3.047765,2.560220,2.118608,1.631062
3.036484,2.544103,2.126667,1.634286
3.030037,2.542491,2.126667,1.639121
3.032454,2.540073,2.130696,1.638315
3.020366,2.541685,2.113773,1.635092
3.041319,2.548132,2.116996,1.623810
3.026007,2.554579,2.108938,1.637509
3.026007,2.533626,2.119414,1.627033
3.018754,2.519121,2.119414,1.619780
3.042930,2.544909,2.126667,1.628645
3.034066,2.538461,2.110549,1.614945
3.036484,2.540073,2.121026,1.624615
3.039707,2.550550,2.113773,1.624615
3.030843,2.553773,2.098462,1.621392
3.030843,2.540073,2.118608,1.627839
3.026813,2.534432,2.104103,1.611722
3.038901,2.535238,2.116190,1.612527
3.033260,2.533626,2.113773,1.614139
3.026813,2.549744,2.100879,1.623810
3.019560,2.539267,2.112967,1.632674
3.022784,2.528791,2.103297,1.609304
3.042125,2.538461,2.114579,1.610916
3.030843,2.540073,2.104103,1.613333
3.032454,2.540879,2.109744,1.618168
3.031648,2.553773,2.112967,1.635092
3.047765,2.540879,2.113773,1.606887
3.018754,2.534432,2.097656,1.613333
3.016337,2.524762,2.092820,1.601245
3.034066,2.526374,2.105714,1.598022
3.027619,2.536850,2.111355,1.620586
3.027619,2.538461,2.092015,1.602857
3.013919,2.517509,2.098462,1.602051
3.036484,2.527179,2.108132,1.598828
3.026007,2.516703,2.110549,1.601245
3.005861,2.519927,2.096044,1.610110
3.023590,2.520733,2.095238,1.592381
3.030037,2.523150,2.105714,1.598828
3.027619,2.515092,2.099267,1.586740
3.026813,2.525568,2.106520,1.605275
3.013113,2.511062,2.095238,1.593187
3.027619,2.519121,2.098462,1.589963
3.009890,2.518315,2.089597,1.598022
3.017143,2.503004,2.100879,1.586740
3.024396,2.526374,2.096044,1.598022
3.046960,2.511868,2.119414,1.584322
3.032454,2.512674,2.100879,1.581099
3.009084,2.508645,2.096044,1.595604
3.017143,2.497363,2.108938,1.589157
3.017949,2.507839,2.097656,1.587546
3.016337,2.494139,2.100879,1.578681
3.020366,2.491722,2.100879,1.572234
3.010696,2.506227,2.095238,1.590769
3.014725,2.512674,2.098462,1.596410
3.015531,2.504615,2.096044,1.585128
3.017143,2.491722,2.101685,1.576264
3.005861,2.514286,2.077509,1.585934
3.002637,2.488498,2.087179,1.573040
3.010696,2.519121,2.083956,1.592381
2.997802,2.496557,2.077509,1.576264
3.014725,2.498974,2.087179,1.571429
3.031648,2.523956,2.088791,1.581099
3.009084,2.516703,2.080733,1.588352
3.017949,2.504615,2.089597,1.576264
3.013113,2.488498,2.096044,1.571429
3.013919,2.490110,2.085568,1.561758
3.012308,2.495751,2.083150,1.566593
3.012308,2.508645,2.076703,1.573040
3.033260,2.496557,2.099267,1.562564
3.005055,2.499780,2.077509,1.572234
3.009890,2.494945,2.079121,1.564176
3.009084,2.494945,2.075897,1.561758
3.002637,2.490916,2.076703,1.564982
3.011502,2.474798,2.083150,1.546447
3.018754,2.503004,2.086374,1.570623
3.006667,2.478828,2.075092,1.547253
3.009084,2.491722,2.078315,1.560952
3.026813,2.494945,2.090403,1.558535
3.010696,2.479634,2.082344,1.551282
3.009890,2.489304,2.079121,1.558535
3.009890,2.495751,2.073480,1.559341
3.005861,2.485275,2.074286,1.553700
3.017949,2.480440,2.085568,1.548059
3.022784,2.491722,2.077509,1.546447
3.015531,2.482051,2.077509,1.544029
3.014725,2.480440,2.063004,1.528718
3.024396,2.507839,2.075897,1.559341
3.008278,2.478828,2.075092,1.545641
3.016337,2.480440,2.082344,1.546447
3.009084,2.476410,2.076703,1.544029
3.009890,2.478022,2.071062,1.539194
2.989743,2.478828,2.055751,1.544835
3.010696,2.469963,2.074286,1.533553
3.013113,2.479634,2.071062,1.537582
3.005861,2.463516,2.077509,1.535165
3.004249,2.478022,2.058168,1.531941
3.010696,2.469963,2.072674,1.531941
3.018754,2.477216,2.075092,1.533553
3.006667,2.482051,2.070256,1.545641
2.992967,2.453846,2.074286,1.535165
3.011502,2.478022,2.067033,1.533553
3.009084,2.467546,2.064615,1.523077
3.007473,2.460293,2.073480,1.526300
3.005055,2.472381,2.067839,1.535165
3.006667,2.468352,2.064615,1.526300
3.013113,2.475604,2.071062,1.533553
3.008278,2.470769,2.067033,1.529524
2.989743,2.467546,2.051722,1.529524
3.003443,2.473993,2.063004,1.533553
3.011502,2.481246,2.077509,1.547253
3.013113,2.473993,2.070256,1.531136
3.000220,2.464322,2.063810,1.527912
3.016337,2.466740,2.075092,1.525494
3.004249,2.474798,2.063004,1.533553
2.993773,2.464322,2.063004,1.533553
2.997802,2.469157,2.050916,1.522271
3.008278,2.459487,2.067839,1.519048
2.997802,2.464322,2.056557,1.523077
2.992161,2.455458,2.051722,1.515018
2.988132,2.457070,2.049304,1.518242
3.009890,2.456264,2.056557,1.502930
2.994579,2.464322,2.053333,1.523077
3.002637,2.480440,2.051722,1.529524
2.991355,2.442564,2.052527,1.503736
2.995385,2.452235,2.053333,1.510183
2.991355,2.451429,2.047692,1.507766
2.988938,2.443370,2.049304,1.503736
2.967180,2.444982,2.043663,1.521465
2.996191,2.456264,2.053333,1.513407
2.995385,2.459487,2.045275,1.509377
2.990550,2.443370,2.049304,1.502125
2.984908,2.462711,2.040440,1.518242
2.987326,2.427253,2.054945,1.494872
2.987326,2.450623,2.045275,1.508571
3.002637,2.448205,2.053333,1.498901
2.976850,2.449817,2.034799,1.507766
2.996996,2.454652,2.050916,1.508571
2.991355,2.456264,2.042051,1.506960
2.971209,2.459487,2.035604,1.523883
2.995385,2.444176,2.049304,1.498095
2.979267,2.443370,2.033993,1.498095
2.987326,2.452235,2.050110,1.515018
2.973626,2.440146,2.040440,1.506960
2.995385,2.457070,2.056557,1.518242
2.994579,2.461099,2.041245,1.507766
2.993773,2.473993,2.038022,1.518242
2.987326,2.456264,2.047692,1.516630
2.992967,2.462711,2.047692,1.517436
2.996996,2.469963,2.066227,1.539194
3.002637,2.477216,2.063004,1.537582
2.987326,2.473993,2.050916,1.537582
2.992161,2.473187,2.072674,1.553700
3.006667,2.485275,2.078315,1.556923
2.996996,2.496557,2.075897,1.575458
3.007473,2.501392,2.077509,1.571429
3.011502,2.498974,2.075897,1.563370
3.007473,2.489304,2.099267,1.581099
3.015531,2.491722,2.100073,1.576264
3.025202,2.513480,2.109744,1.598022
3.021172,2.521538,2.109744,1.610110
3.035678,2.534432,2.112161,1.610916
3.025202,2.528791,2.111355,1.614945
3.039707,2.544909,2.122637,1.627839
3.033260,2.544909,2.125055,1.636703
3.050989,2.549744,2.126667,1.625421
3.025202,2.525568,2.124249,1.624615
3.042125,2.547326,2.130696,1.635897
3.055824,2.542491,2.141172,1.627839
3.026813,2.542491,2.128278,1.643956
3.038901,2.543297,2.128278,1.632674
3.049377,2.549744,2.133919,1.634286
3.022784,2.538461,2.121026,1.636703
3.032454,2.551355,2.137949,1.656850
3.031648,2.552161,2.141978,1.662491
3.049377,2.554579,2.137143,1.642344
3.033260,2.545714,2.134725,1.647179
3.038901,2.565055,2.127473,1.653626
3.029231,2.566667,2.126667,1.664103
3.038901,2.563443,2.140366,1.664908
3.021978,2.556996,2.121831,1.656850
3.032454,2.533626,2.141172,1.642344
3.036484,2.559414,2.133919,1.656850
3.034872,2.552967,2.133919,1.652015
3.049377,2.545714,2.149231,1.645568
3.023590,2.555385,2.125055,1.656850
3.037289,2.559414,2.132308,1.654432
3.029231,2.548938,2.137949,1.657656
3.024396,2.560220,2.117802,1.653626
3.015531,2.526374,2.126667,1.637509
3.039707,2.564249,2.126667,1.651209
3.025202,2.548938,2.121831,1.645568
3.031648,2.556190,2.137143,1.661685
3.028425,2.547326,2.128278,1.647179
3.062271,2.571502,2.147619,1.656850
3.028425,2.547326,2.126667,1.645568
3.035678,2.569890,2.122637,1.656850
3.035678,2.555385,2.142784,1.662491
3.028425,2.540879,2.138755,1.651209
3.046960,2.534432,2.157289,1.644762
3.021172,2.543297,2.114579,1.636703
3.030037,2.542491,2.125055,1.637509
3.054213,2.552967,2.140366,1.639121
3.034872,2.552161,2.126667,1.643956
3.046154,2.557802,2.130696,1.642344
3.034066,2.538461,2.134725,1.639121
3.052601,2.556996,2.141172,1.645568
3.032454,2.540073,2.136337,1.643956
3.025202,2.538461,2.125055,1.638315
3.038901,2.547326,2.133919,1.642344
3.038095,2.565861,2.124249,1.652015
3.038095,2.555385,2.134725,1.652015
3.034066,2.544909,2.125861,1.636703
3.033260,2.559414,2.134725,1.660879
3.041319,2.572308,2.126667,1.657656
3.028425,2.543297,2.126667,1.641539
3.037289,2.533626,2.129084,1.625421
3.059048,2.551355,2.144396,1.636703
3.034872,2.540073,2.129084,1.634286
3.030037,2.554579,2.126667,1.651209
3.038901,2.547326,2.124249,1.632674
3.026007,2.563443,2.121026,1.658462
3.043736,2.524762,2.137143,1.618168
3.025202,2.532820,2.130696,1.638315
3.040513,2.523150,2.137143,1.619780
3.017143,2.524762,2.116190,1.623810
3.027619,2.523956,2.126667,1.623004
3.010696,2.519121,2.117802,1.626227
3.034872,2.534432,2.129890,1.629451
3.034872,2.525568,2.134725,1.625421
3.017949,2.521538,2.115385,1.618974
3.038095,2.526374,2.126667,1.614945
3.019560,2.517509,2.112967,1.610916
3.032454,2.515092,2.133919,1.616557
3.018754,2.510257,2.113773,1.605275
3.032454,2.520733,2.121831,1.610110
3.022784,2.515898,2.112161,1.605275
3.038901,2.521538,2.125861,1.608498
3.027619,2.513480,2.125861,1.611722
3.024396,2.515092,2.121026,1.611722
3.013919,2.515092,2.109744,1.610916
3.024396,2.526374,2.113773,1.615751
3.026813,2.521538,2.113773,1.608498
3.014725,2.513480,2.109744,1.608498
3.032454,2.527179,2.116190,1.610916
3.021172,2.516703,2.111355,1.606887
3.014725,2.511062,2.101685,1.598022
3.021172,2.507033,2.113773,1.599634
3.031648,2.529597,2.117802,1.615751
3.011502,2.507839,2.106520,1.602857
3.026813,2.520733,2.111355,1.605275
3.023590,2.529597,2.112161,1.618168
3.017949,2.506227,2.114579,1.602857
3.019560,2.518315,2.126667,1.625421
3.019560,2.512674,2.105714,1.598828
3.034066,2.515092,2.121026,1.602051
3.022784,2.509450,2.111355,1.598022
3.017949,2.513480,2.113773,1.609304
3.013113,2.490110,2.121026,1.598022
3.014725,2.503004,2.113773,1.602051
3.040513,2.508645,2.126667,1.594799
3.009890,2.508645,2.111355,1.610110
3.017949,2.512674,2.117802,1.612527
3.017143,2.490916,2.113773,1.587546
3.035678,2.529597,2.120220,1.614139
3.017143,2.515898,2.112161,1.610916
3.030843,2.526374,2.112967,1.608498
3.016337,2.503004,2.113773,1.600440
3.034872,2.532015,2.113773,1.610916
3.030037,2.530403,2.105714,1.606081
3.026813,2.528791,2.114579,1.616557
3.010696,2.512674,2.103297,1.605275
3.031648,2.514286,2.121026,1.603663
3.027619,2.525568,2.114579,1.612527
3.032454,2.526374,2.108132,1.602051
3.026007,2.512674,2.116996,1.603663
3.026007,2.514286,2.113773,1.602051
3.022784,2.514286,2.112161,1.603663
3.042125,2.510257,2.125861,1.593993
3.026813,2.503004,2.109744,1.585934
3.038901,2.521538,2.121026,1.603663
3.035678,2.529597,2.121026,1.614945
3.017949,2.519121,2.109744,1.610916
3.034872,2.519121,2.114579,1.598828
3.019560,2.510257,2.103297,1.593993
3.023590,2.519927,2.105714,1.602051
3.011502,2.509450,2.100073,1.598022
3.018754,2.510257,2.102491,1.593993
3.022784,2.504615,2.116190,1.598022
3.016337,2.500586,2.100879,1.585128
3.024396,2.490110,2.113773,1.579487
3.022784,2.519121,2.109744,1.606081
3.037289,2.515092,2.121831,1.599634
3.031648,2.518315,2.113773,1.600440
3.019560,2.502198,2.100073,1.582711
3.024396,2.515092,2.108132,1.598828
3.008278,2.485275,2.098462,1.575458
2.996996,2.486887,2.103297,1.593187
3.024396,2.501392,2.107326,1.584322
3.018754,2.500586,2.102491,1.584322
3.018754,2.492527,2.103297,1.577070
3.018754,2.502198,2.100879,1.584322
3.015531,2.492527,2.108132,1.585128
3.009890,2.497363,2.098462,1.585934
3.015531,2.493333,2.096044,1.573846
3.024396,2.494945,2.111355,1.581905
3.026813,2.503004,2.111355,1.587546
3.021172,2.504615,2.097656,1.581099
3.026813,2.486887,2.100879,1.560952
3.017949,2.509450,2.089597,1.581099
3.021172,2.495751,2.093626,1.568205
2.994579,2.473187,2.086374,1.564982
3.011502,2.481246,2.100879,1.570623
3.017949,2.493333,2.092015,1.567399
3.019560,2.489304,2.098462,1.568205
2.998608,2.478828,2.082344,1.562564
3.006667,2.488498,2.090403,1.572234
3.025202,2.492527,2.099267,1.566593
3.005861,2.473187,2.090403,1.557729
3.032454,2.489304,2.100879,1.557729
3.017143,2.483663,2.100073,1.566593
3.017143,2.487692,2.093626,1.564176
3.012308,2.484469,2.096044,1.568205
3.017949,2.494945,2.095238,1.572234
3.016337,2.475604,2.100879,1.560147
3.003443,2.468352,2.093626,1.558535
3.011502,2.479634,2.096044,1.564176
3.014725,2.496557,2.099267,1.581099
3.013919,2.486081,2.089597,1.561758
3.010696,2.494945,2.079927,1.564176
3.007473,2.485275,2.083956,1.561758
2.994579,2.475604,2.075897,1.556923
2.988132,2.444982,2.087985,1.544835
3.021172,2.474798,2.093626,1.547253
3.020366,2.482857,2.096850,1.559341
3.007473,2.478022,2.084762,1.555311
3.004249,2.490916,2.075897,1.562564
3.009084,2.466740,2.092820,1.550476
3.001832,2.478022,2.079121,1.555311
3.003443,2.476410,2.075092,1.548059
3.018754,2.492527,2.083150,1.556923
3.019560,2.480440,2.083956,1.544835
3.009084,2.450623,2.100879,1.542418
2.995385,2.449011,2.075092,1.528718
2.999414,2.453846,2.083956,1.538388
3.022784,2.474798,2.095238,1.547253
3.006667,2.469963,2.080733,1.544029
2.992967,2.451429,2.083150,1.541612
2.999414,2.470769,2.075897,1.547253
3.007473,2.469157,2.077509,1.539194
3.001832,2.474798,2.069451,1.542418
3.006667,2.473993,2.076703,1.544029
3.010696,2.469963,2.074286,1.533553
3.009890,2.451429,2.075897,1.517436
3.003443,2.458681,2.073480,1.528718
3.012308,2.464322,2.083956,1.535971
2.998608,2.458681,2.070256,1.530330
3.009890,2.456264,2.079121,1.525494
3.016337,2.465934,2.075092,1.524689
2.983297,2.449817,2.055751,1.522271
3.001832,2.452235,2.063004,1.513407
3.000220,2.462711,2.067033,1.529524
3.002637,2.461099,2.063004,1.521465
2.984102,2.450623,2.052527,1.519048
2.982491,2.446594,2.051722,1.515824
2.999414,2.461099,2.067033,1.528718
2.987326,2.465934,2.054945,1.533553
2.997802,2.449011,2.069451,1.520659
3.005055,2.439341,2.064615,1.498901
3.001832,2.457875,2.072674,1.528718
3.014725,2.453040,2.067839,1.506154
2.998608,2.452235,2.072674,1.526300
2.990550,2.436117,2.063004,1.508571
2.985714,2.444982,2.048498,1.507766
3.001026,2.461099,2.054945,1.515018
3.007473,2.446594,2.066227,1.505348
2.987326,2.444176,2.054139,1.510989
2.983297,2.441758,2.049304,1.507766
2.988938,2.438535,2.050110,1.499707
2.989743,2.434505,2.063004,1.507766
2.992967,2.429670,2.066227,1.502930
2.977656,2.437729,2.049304,1.509377
3.006667,2.448205,2.064615,1.506154
2.981685,2.446594,2.042051,1.506960
2.988938,2.439341,2.049304,1.499707
2.992161,2.428059,2.066227,1.502125
3.008278,2.440146,2.067033,1.498901
2.989743,2.442564,2.050110,1.502930
2.969597,2.420806,2.042051,1.493260
2.988132,2.436117,2.048498,1.496484
2.994579,2.453040,2.054945,1.513407
2.992967,2.444176,2.051722,1.502930
2.984908,2.428864,2.049304,1.493260
3.008278,2.436117,2.063004,1.490842
3.009084,2.440146,2.063810,1.494872
3.004249,2.440952,2.063004,1.499707
2.978462,2.425641,2.051722,1.498901
2.987326,2.424029,2.046886,1.483590
3.000220,2.436923,2.053333,1.490037
2.978462,2.434505,2.037216,1.493260
2.997802,2.432088,2.051722,1.486007
2.980073,2.424029,2.050110,1.494066
2.984102,2.423223,2.048498,1.487619
2.987326,2.425641,2.048498,1.486813
2.992967,2.437729,2.051722,1.496484
2.985714,2.435311,2.041245,1.490842
2.980073,2.436117,2.051722,1.507766
2.999414,2.433700,2.046081,1.480366
2.990550,2.426447,2.049304,1.485201
2.992967,2.426447,2.049304,1.482784
2.965568,2.415971,2.032381,1.482784
2.991355,2.439341,2.042051,1.490037
2.988132,2.424029,2.046886,1.482784
2.985714,2.422418,2.040440,1.477143
2.980879,2.421612,2.040440,1.481172
2.994579,2.427253,2.049304,1.481978
2.995385,2.440952,2.049304,1.494872
2.992967,2.431282,2.043663,1.481978
2.983297,2.428864,2.042051,1.487619
2.973626,2.417583,2.038022,1.481978
2.977656,2.415971,2.038828,1.477143
2.977656,2.421612,2.045275,1.489231
2.987326,2.424029,2.045275,1.481978
2.981685,2.435311,2.038828,1.492454
2.992967,2.444176,2.043663,1.494872
2.990550,2.432894,2.049304,1.491648
3.000220,2.451429,2.043663,1.494872
2.991355,2.447399,2.051722,1.507766
2.986520,2.438535,2.054139,1.506154
2.979267,2.451429,2.050916,1.523077
2.996996,2.458681,2.071868,1.533553
3.003443,2.461905,2.075092,1.533553
3.002637,2.461099,2.075092,1.533553
3.004249,2.480440,2.087179,1.563370
3.005055,2.482051,2.090403,1.567399
3.022784,2.501392,2.095238,1.573846
3.007473,2.482051,2.096850,1.571429
3.013113,2.500586,2.096850,1.584322
3.020366,2.503004,2.113773,1.596410
3.027619,2.520733,2.109744,1.602857
3.021172,2.520733,2.111355,1.610916
3.026007,2.516703,2.115385,1.606081
3.015531,2.506227,2.111355,1.602051
3.038095,2.547326,2.125055,1.634286
3.022784,2.523150,2.117802,1.618168
3.032454,2.528791,2.129084,1.625421
3.025202,2.522344,2.124249,1.621392
3.028425,2.526374,2.126667,1.624615
3.021172,2.527179,2.121831,1.627839
3.034872,2.526374,2.141172,1.632674
3.035678,2.535238,2.137143,1.636703
3.042930,2.537656,2.133919,1.628645
3.018754,2.534432,2.121026,1.636703
3.026007,2.526374,2.136337,1.636703
3.036484,2.552161,2.129084,1.644762
3.021978,2.532820,2.127473,1.638315
3.041319,2.531209,2.136337,1.626227
3.036484,2.539267,2.126667,1.629451
3.008278,2.515898,2.130696,1.638315
3.046960,2.531209,2.140366,1.624615
3.042930,2.539267,2.139560,1.635897
3.026007,2.535238,2.128278,1.637509
3.042930,2.553773,2.127473,1.638315
3.030843,2.531209,2.137143,1.637509
3.024396,2.554579,2.124249,1.654432
3.030037,2.540073,2.140366,1.650403
3.036484,2.550550,2.128278,1.642344
3.023590,2.532820,2.126667,1.635897
3.025202,2.543297,2.120220,1.638315
3.034066,2.542491,2.130696,1.639121
3.039707,2.543297,2.146813,1.650403
3.029231,2.536850,2.129084,1.636703
3.028425,2.536850,2.127473,1.635897
3.017949,2.533626,2.120220,1.635897
3.030037,2.530403,2.131502,1.631868
3.034066,2.532820,2.139560,1.638315
3.018754,2.522344,2.129084,1.632674
3.031648,2.544103,2.125861,1.638315
3.016337,2.525568,2.127473,1.636703
3.037289,2.541685,2.133919,1.638315
3.040513,2.541685,2.140366,1.641539
3.034066,2.530403,2.140366,1.636703
3.038901,2.543297,2.131502,1.635897
3.026813,2.536850,2.129084,1.639121
3.042930,2.552161,2.136337,1.645568
3.032454,2.520733,2.137143,1.625421
3.033260,2.542491,2.131502,1.640733
3.034872,2.551355,2.125055,1.641539
3.036484,2.540879,2.137949,1.642344
3.040513,2.538461,2.137143,1.635092
3.003443,2.536850,2.128278,1.661685
3.035678,2.544909,2.127473,1.636703
3.030843,2.537656,2.129084,1.635897
3.039707,2.544103,2.134725,1.639121
3.031648,2.532015,2.137143,1.637509
3.013113,2.529597,2.127473,1.643956
3.026007,2.536850,2.122637,1.633480
3.040513,2.523956,2.137949,1.621392
3.036484,2.542491,2.130696,1.636703
3.024396,2.532820,2.125861,1.634286
3.008278,2.528791,2.118608,1.639121
3.048571,2.538461,2.143590,1.633480
3.028425,2.524762,2.126667,1.623004
3.034872,2.543297,2.128278,1.636703
3.042930,2.532820,2.130696,1.620586
3.042930,2.541685,2.127473,1.626227
3.029231,2.515092,2.125055,1.610916
3.030037,2.527985,2.123443,1.621392
3.029231,2.515898,2.124249,1.610916
3.030843,2.523956,2.117802,1.610916
3.017143,2.520733,2.104908,1.608498
3.019560,2.521538,2.108938,1.610916
3.026007,2.521538,2.115385,1.610916
3.017143,2.513480,2.111355,1.607692
3.029231,2.511868,2.116190,1.598828
3.013113,2.508645,2.110549,1.606081
3.026007,2.536044,2.101685,1.611722
3.009890,2.502198,2.108132,1.600440
3.039707,2.523150,2.121831,1.605275
3.032454,2.521538,2.116190,1.605275
3.034066,2.520733,2.112967,1.599634
3.027619,2.511868,2.106520,1.590769
3.023590,2.508645,2.112967,1.598022
3.017949,2.506227,2.104908,1.593187
3.022784,2.517509,2.112967,1.607692
3.017143,2.505421,2.106520,1.594799
3.024396,2.513480,2.108132,1.597216
3.026813,2.519121,2.112967,1.605275
3.030843,2.508645,2.121026,1.598828
3.037289,2.528791,2.114579,1.606081
3.026813,2.513480,2.116190,1.602857
3.027619,2.512674,2.112967,1.598022
3.034066,2.527179,2.121831,1.614945
3.029231,2.507033,2.125861,1.603663
3.007473,2.500586,2.117802,1.610916
3.018754,2.505421,2.113773,1.600440
3.027619,2.512674,2.114579,1.599634
3.009084,2.517509,2.105714,1.614139
3.037289,2.524762,2.125861,1.613333
3.034066,2.512674,2.119414,1.598022
3.026813,2.516703,2.112967,1.602857
3.023590,2.519927,2.108938,1.605275
3.037289,2.524762,2.124249,1.611722
3.025202,2.515898,2.108132,1.598828
3.025202,2.516703,2.124249,1.615751
3.025202,2.508645,2.116996,1.600440
3.020366,2.511868,2.113773,1.605275
3.026007,2.513480,2.117802,1.605275
3.026813,2.512674,2.113773,1.599634
3.026813,2.520733,2.116996,1.610916
3.028425,2.514286,2.120220,1.606081
3.017949,2.515092,2.109744,1.606887
3.035678,2.507033,2.134725,1.606081
3.034066,2.519927,2.121026,1.606887
3.034872,2.515898,2.127473,1.608498
3.026007,2.508645,2.111355,1.593993
3.034066,2.516703,2.118608,1.601245
3.017949,2.523150,2.104908,1.610110
3.027619,2.509450,2.116190,1.598022
3.020366,2.502198,2.116190,1.598022
3.034872,2.514286,2.119414,1.598828
3.023590,2.524762,2.105714,1.606887
3.034066,2.519927,2.121026,1.606887
3.027619,2.519121,2.113773,1.605275
3.038095,2.523150,2.121026,1.606081
3.029231,2.515092,2.112161,1.598022
3.025202,2.502198,2.112967,1.589963
3.026813,2.519121,2.113773,1.606081
3.037289,2.517509,2.121831,1.602051
3.026007,2.515898,2.112161,1.602051
3.030843,2.517509,2.112161,1.598828
3.019560,2.505421,2.104908,1.590769
3.042125,2.525568,2.115385,1.598828
3.014725,2.507839,2.113773,1.606887
3.005861,2.515898,2.111355,1.621392
3.023590,2.520733,2.098462,1.595604
3.030037,2.522344,2.112967,1.605275
3.041319,2.517509,2.121831,1.598022
3.027619,2.515898,2.111355,1.599634
3.021172,2.501392,2.115385,1.595604
3.034066,2.515092,2.116190,1.597216
3.029231,2.507033,2.109744,1.587546
3.030843,2.519927,2.121831,1.610916
3.030843,2.513480,2.115385,1.598022
3.027619,2.519121,2.109744,1.601245
3.030037,2.517509,2.112967,1.600440
3.036484,2.521538,2.113773,1.598828
3.017143,2.494945,2.109744,1.587546
3.017949,2.519121,2.104908,1.606081
3.030037,2.505421,2.117802,1.593187
3.025202,2.507839,2.104103,1.586740
3.029231,2.508645,2.113773,1.593187
3.028425,2.514286,2.112161,1.598022
3.021172,2.507839,2.112967,1.599634
3.021978,2.502198,2.113773,1.593993
3.023590,2.502198,2.108938,1.587546
3.024396,2.508645,2.108938,1.593187
3.022784,2.521538,2.103297,1.602051
3.006667,2.492527,2.103297,1.589157
3.024396,2.501392,2.108938,1.585934
3.015531,2.498974,2.100073,1.583516
3.013919,2.509450,2.100879,1.596410
3.023590,2.503809,2.100879,1.581099
3.017143,2.503809,2.108938,1.595604
3.029231,2.503809,2.108132,1.582711
3.018754,2.501392,2.102491,1.585128
3.017949,2.494139,2.106520,1.582711
3.007473,2.501392,2.092015,1.585934
3.035678,2.515092,2.111355,1.590769
3.028425,2.495751,2.100879,1.568205
3.013919,2.486887,2.098462,1.571429
3.021172,2.483663,2.111355,1.573846
3.004249,2.500586,2.088791,1.585128
3.013919,2.498168,2.100879,1.585128
3.017949,2.497363,2.102491,1.581905
3.013919,2.483663,2.103297,1.573040
3.024396,2.506227,2.103297,1.585128
3.027619,2.497363,2.110549,1.580293
3.009890,2.494139,2.100879,1.585128
3.015531,2.497363,2.098462,1.580293
3.019560,2.497363,2.100073,1.577875
2.996191,2.486081,2.083956,1.573846
3.020366,2.511062,2.096044,1.586740
3.021978,2.494945,2.106520,1.579487
3.014725,2.487692,2.098462,1.571429
3.014725,2.481246,2.103297,1.569817
3.019560,2.482857,2.104103,1.567399
3.014725,2.503004,2.083956,1.572234
3.019560,2.485275,2.105714,1.571429
3.016337,2.489304,2.096044,1.569011
3.025202,2.483663,2.100879,1.559341
3.028425,2.475604,2.113773,1.560952
3.026813,2.495751,2.104103,1.573040
3.012308,2.483663,2.101685,1.573040
3.016337,2.482857,2.100879,1.567399
3.018754,2.486081,2.091209,1.558535
3.023590,2.479634,2.112161,1.568205
3.012308,2.490110,2.095238,1.573040
3.022784,2.479634,2.100073,1.556923
3.035678,2.505421,2.100073,1.569817
3.007473,2.466740,2.092015,1.551282
3.021172,2.475604,2.090403,1.544835
3.010696,2.471575,2.084762,1.545641
3.011502,2.483663,2.087179,1.559341
3.017143,2.465128,2.083956,1.531941
3.008278,2.480440,2.079927,1.552088
3.015531,2.475604,2.085568,1.545641
3.021978,2.464322,2.095238,1.537582
2.996191,2.449817,2.082344,1.535971
3.019560,2.465934,2.096044,1.542418
3.001832,2.453846,2.083956,1.535971
3.007473,2.478828,2.075092,1.546447
3.007473,2.473993,2.074286,1.540806
3.005055,2.449817,2.087985,1.532747
3.005861,2.469157,2.070256,1.533553
3.012308,2.464322,2.083150,1.535165
3.002637,2.469157,2.074286,1.540806
2.999414,2.477216,2.069451,1.547253
3.030037,2.466740,2.088791,1.525494
3.001832,2.464322,2.069451,1.531941
3.001026,2.461099,2.067839,1.527912
3.006667,2.465934,2.074286,1.533553
3.003443,2.449817,2.072674,1.519048
3.018754,2.461905,2.084762,1.527912
3.010696,2.467546,2.074286,1.531136
3.009084,2.464322,2.063004,1.518242
2.982491,2.456264,2.054139,1.527912
3.011502,2.457875,2.073480,1.519853
2.987326,2.444982,2.050916,1.508571
2.991355,2.461099,2.054139,1.523883
3.005861,2.466740,2.063810,1.524689
2.985714,2.444982,2.050110,1.509377
3.015531,2.467546,2.074286,1.526300
2.994579,2.459487,2.050916,1.515824
2.992161,2.450623,2.053333,1.511795
3.003443,2.453040,2.067033,1.516630
2.997802,2.456264,2.056557,1.515018
2.997802,2.461099,2.056557,1.519853
2.994579,2.445787,2.054945,1.506154
3.013113,2.468352,2.056557,1.511795
3.001026,2.455458,2.063004,1.517436
3.009084,2.458681,2.069451,1.519048
3.001026,2.450623,2.057363,1.506960
2.994579,2.447399,2.053333,1.506154
2.990550,2.448205,2.053333,1.510989
2.993773,2.457070,2.053333,1.516630
2.992161,2.443370,2.051722,1.502930
2.984908,2.449011,2.042051,1.506154
2.986520,2.449011,2.045275,1.507766
2.992161,2.442564,2.049304,1.499707
3.005861,2.438535,2.063004,1.495678
2.989743,2.449011,2.048498,1.507766
2.996191,2.450623,2.057363,1.511795
3.000220,2.455458,2.044469,1.499707
2.989743,2.451429,2.040440,1.502125
2.977656,2.449011,2.038828,1.510183
2.993773,2.448205,2.050916,1.505348
3.009084,2.441758,2.070256,1.502930
2.984908,2.436117,2.043663,1.494872
2.989743,2.446594,2.044469,1.501319
2.992161,2.444176,2.050916,1.502930
3.003443,2.461905,2.051722,1.510183
2.992967,2.449817,2.050916,1.507766
3.023590,2.472381,2.067033,1.515824
2.990550,2.448205,2.049304,1.506960
3.023590,2.473187,2.075092,1.524689
3.011502,2.465128,2.069451,1.523077
3.008278,2.462711,2.071062,1.525494
2.998608,2.465934,2.057363,1.524689
2.989743,2.480440,2.053333,1.544029
3.012308,2.478022,2.078315,1.544029
3.014725,2.486081,2.075092,1.546447
3.010696,2.465934,2.083150,1.538388
2.997802,2.469963,2.079121,1.551282
3.017143,2.494139,2.087179,1.564176
3.005861,2.487692,2.087985,1.569817
3.005861,2.495751,2.087985,1.577875
3.026813,2.503004,2.111355,1.587546
3.015531,2.522344,2.100073,1.606887
3.038095,2.522344,2.113773,1.598022
3.020366,2.511868,2.106520,1.598022
3.035678,2.530403,2.117802,1.612527
3.025202,2.520733,2.109744,1.605275
3.026813,2.528791,2.108938,1.610916
3.034872,2.530403,2.114579,1.610110
3.028425,2.530403,2.123443,1.625421
3.034872,2.534432,2.120220,1.619780
3.046960,2.562637,2.145201,1.660879
3.032454,2.529597,2.126667,1.623810
3.049377,2.561831,2.129084,1.641539
3.029231,2.533626,2.131502,1.635897
3.023590,2.537656,2.126667,1.640733
3.026007,2.526374,2.134725,1.635092
3.029231,2.553773,2.117802,1.642344
3.045348,2.568278,2.133919,1.656850
3.050183,2.555385,2.136337,1.641539
3.050183,2.553773,2.138755,1.642344
3.017949,2.527985,2.130696,1.640733
3.041319,2.555385,2.127473,1.641539
3.023590,2.552967,2.121026,1.650403
3.037289,2.561831,2.130696,1.655238
3.026813,2.563443,2.126667,1.663297
3.050183,2.552967,2.139560,1.642344
3.041319,2.555385,2.137143,1.651209
3.030037,2.563443,2.126667,1.660073
3.034066,2.555385,2.130696,1.652015
3.032454,2.548938,2.133919,1.650403
3.027619,2.562637,2.124249,1.659267
3.033260,2.570696,2.125055,1.662491
3.030843,2.552161,2.133919,1.655238
3.034872,2.559414,2.134725,1.659267
3.039707,2.559414,2.135531,1.655238
3.018754,2.552161,2.126667,1.660073
3.050183,2.570696,2.140366,1.660879
3.028425,2.559414,2.131502,1.662491
3.030843,2.556996,2.141172,1.667326
3.041319,2.564249,2.141172,1.664103
3.033260,2.559414,2.134725,1.660879
3.055824,2.575531,2.140366,1.660073
3.034872,2.536850,2.134725,1.636703
3.021978,2.535238,2.126667,1.639927
3.035678,2.560220,2.139560,1.664103
3.041319,2.556190,2.138755,1.653626
3.028425,2.563443,2.126667,1.661685
3.037289,2.570696,2.129084,1.662491
3.043736,2.552967,2.151648,1.660879
3.022784,2.539267,2.141978,1.658462
3.027619,2.556996,2.132308,1.661685
3.035678,2.547326,2.138755,1.650403
3.044542,2.544103,2.152454,1.652015
3.055824,2.548938,2.154066,1.647179
3.038095,2.544909,2.146813,1.653626
3.033260,2.561026,2.135531,1.663297
3.037289,2.573113,2.125861,1.661685
3.037289,2.561026,2.140366,1.664103
3.040513,2.562637,2.139560,1.661685
3.039707,2.542491,2.151648,1.654432
3.024396,2.549744,2.129084,1.654432
3.034872,2.553773,2.131502,1.650403
3.023590,2.552161,2.133919,1.662491
3.036484,2.551355,2.138755,1.653626
3.042125,2.559414,2.140366,1.657656
3.021978,2.536044,2.131502,1.645568
3.034872,2.552161,2.133919,1.651209
3.025202,2.536850,2.129890,1.641539
3.029231,2.543297,2.122637,1.636703
3.037289,2.555385,2.141978,1.660073
3.027619,2.541685,2.126667,1.640733
3.045348,2.534432,2.138755,1.627839
3.026813,2.530403,2.131502,1.635092
3.038901,2.534432,2.133919,1.629451
3.037289,2.522344,2.139560,1.624615
3.017143,2.509450,2.122637,1.614945
3.027619,2.531209,2.124249,1.627839
3.034872,2.519927,2.136337,1.621392
3.034872,2.530403,2.124249,1.619780
3.021978,2.515092,2.129890,1.623004
3.034066,2.540879,2.125861,1.632674
3.026007,2.523150,2.124249,1.621392
3.005055,2.514286,2.114579,1.623810
3.048571,2.542491,2.137949,1.631868
2.997802,2.506227,2.112967,1.621392
3.020366,2.509450,2.121831,1.610916
3.036484,2.536850,2.125861,1.626227
3.035678,2.537656,2.129084,1.631062
3.030037,2.527179,2.127473,1.624615
3.042125,2.541685,2.126667,1.626227
3.041319,2.533626,2.126667,1.618974
3.018754,2.526374,2.111355,1.618974
3.025202,2.515092,2.123443,1.613333
3.007473,2.513480,2.113773,1.619780
3.041319,2.510257,2.141172,1.610110
3.031648,2.519927,2.130696,1.618974
3.019560,2.521538,2.112967,1.614945
3.019560,2.503004,2.127473,1.610916
3.042125,2.547326,2.126667,1.631868
3.027619,2.511868,2.137143,1.621392
3.036484,2.529597,2.132308,1.625421
3.030843,2.530403,2.126667,1.626227
3.030843,2.532820,2.126667,1.628645
3.034872,2.532015,2.126667,1.623810
3.041319,2.532820,2.137949,1.629451
3.022784,2.509450,2.122637,1.609304
3.031648,2.532015,2.133919,1.634286
3.019560,2.506227,2.127473,1.614139
3.026007,2.529597,2.123443,1.627033
3.010696,2.529597,2.115385,1.634286
3.019560,2.522344,2.117802,1.620586
3.016337,2.506227,2.133919,1.623810
3.017949,2.507839,2.129084,1.618974
3.024396,2.524762,2.132308,1.632674
3.027619,2.518315,2.129084,1.619780
3.029231,2.536850,2.126667,1.634286
3.038901,2.552161,2.125861,1.639121
3.021978,2.529597,2.124249,1.631868
3.042125,2.535238,2.138755,1.631868
3.041319,2.524762,2.140366,1.623810
3.025202,2.522344,2.117802,1.614945
3.013113,2.502198,2.130696,1.619780
3.026813,2.519121,2.126667,1.618974
3.032454,2.532015,2.135531,1.635092
3.013919,2.510257,2.121831,1.618168
3.034066,2.518315,2.127473,1.611722
3.021978,2.540879,2.118608,1.637509
3.016337,2.526374,2.121026,1.631062
3.029231,2.527985,2.130696,1.629451
3.033260,2.533626,2.119414,1.619780
3.030037,2.516703,2.125861,1.612527
3.021172,2.502198,2.129084,1.610110
3.017949,2.503004,2.118608,1.603663
3.017143,2.519927,2.121831,1.624615
3.034066,2.526374,2.117802,1.610110
3.032454,2.523150,2.118608,1.609304
3.018754,2.510257,2.114579,1.606081
3.019560,2.512674,2.112967,1.606081
3.021978,2.519121,2.117802,1.614945
3.030037,2.514286,2.126667,1.610916
3.019560,2.523956,2.113773,1.618168
3.017949,2.511062,2.113773,1.606887
3.020366,2.521538,2.113773,1.614945
3.029231,2.527179,2.113773,1.611722
3.022784,2.518315,2.102491,1.598022
3.028425,2.523956,2.114579,1.610110
3.016337,2.503004,2.111355,1.598022
3.030037,2.514286,2.115385,1.599634
3.017949,2.509450,2.113773,1.605275
3.003443,2.480440,2.108132,1.585128
3.015531,2.509450,2.100073,1.593993
3.026007,2.503809,2.118608,1.596410
3.032454,2.522344,2.116996,1.606887
3.031648,2.519121,2.113773,1.601245
3.023590,2.509450,2.113773,1.599634
3.028425,2.505421,2.112967,1.589963
3.025202,2.501392,2.113773,1.589963
3.016337,2.514286,2.100879,1.598828
3.013113,2.503004,2.108132,1.598022
3.030037,2.502198,2.112967,1.585128
3.016337,2.495751,2.108938,1.588352
3.032454,2.504615,2.114579,1.586740
3.031648,2.515898,2.111355,1.595604
3.010696,2.486081,2.109744,1.585128
3.021978,2.486887,2.108938,1.573846
3.007473,2.478022,2.102491,1.573040
3.004249,2.497363,2.100879,1.593993
3.010696,2.492527,2.108938,1.590769
3.021172,2.499780,2.106520,1.585128
3.037289,2.511062,2.108938,1.582711
3.017143,2.502198,2.097656,1.582711
3.018754,2.501392,2.102491,1.585128
3.013113,2.501392,2.106520,1.594799
3.013113,2.486081,2.098462,1.571429
3.021172,2.486081,2.105714,1.570623
3.017949,2.489304,2.103297,1.574652
3.019560,2.496557,2.099267,1.576264
3.028425,2.499780,2.113773,1.585128
3.017949,2.493333,2.096850,1.572234
3.016337,2.490916,2.096850,1.571429
2.993773,2.485275,2.088791,1.580293
3.007473,2.490110,2.092015,1.574652
3.013919,2.493333,2.093626,1.573040
3.032454,2.493333,2.112967,1.573846
3.021172,2.500586,2.092820,1.572234
3.002637,2.486887,2.096044,1.580293
3.007473,2.470769,2.092015,1.555311
3.005055,2.483663,2.089597,1.568205
3.022784,2.478022,2.101685,1.556923
3.007473,2.482051,2.089597,1.564176
3.009084,2.482051,2.095238,1.568205
3.003443,2.481246,2.088791,1.566593
3.005055,2.476410,2.092015,1.563370
3.014725,2.478828,2.088791,1.552894
3.016337,2.473993,2.096044,1.553700
2.988132,2.454652,2.087179,1.553700
3.005055,2.480440,2.083956,1.559341
3.002637,2.477216,2.088791,1.563370
3.001832,2.469963,2.088791,1.556923
3.005861,2.471575,2.082344,1.548059
2.993773,2.455458,2.083150,1.544835
3.005861,2.490110,2.085568,1.569817
2.996191,2.472381,2.080733,1.556923
3.013113,2.475604,2.083956,1.546447
2.995385,2.468352,2.066227,1.539194
3.026007,2.475604,2.095238,1.544835
3.021172,2.482051,2.092820,1.553700
2.999414,2.463516,2.083956,1.548059
3.014725,2.463516,2.087985,1.536777
2.999414,2.451429,2.079927,1.531941
3.007473,2.475604,2.074286,1.542418
3.003443,2.475604,2.075092,1.547253
3.002637,2.454652,2.085568,1.537582
2.985714,2.463516,2.066227,1.544029
3.004249,2.466740,2.073480,1.535971
3.009084,2.468352,2.078315,1.537582
3.004249,2.465128,2.073480,1.534359
2.989743,2.445787,2.076703,1.532747
3.004249,2.467546,2.071062,1.534359
3.010696,2.469157,2.075092,1.533553
2.993773,2.444176,2.074286,1.524689
3.007473,2.454652,2.075092,1.522271
2.990550,2.461905,2.075092,1.546447
3.008278,2.455458,2.075092,1.522271
3.005055,2.459487,2.067839,1.522271
2.997802,2.457875,2.063810,1.523883
3.001832,2.459487,2.072674,1.530330
3.004249,2.461905,2.075897,1.533553
2.989743,2.438535,2.070256,1.519048
2.986520,2.452235,2.054945,1.520659
3.000220,2.445787,2.071062,1.516630
2.984908,2.453846,2.054945,1.523883
2.972821,2.444176,2.057363,1.528718
3.002637,2.448205,2.073480,1.519048
2.990550,2.442564,2.063004,1.515018
2.991355,2.439341,2.072674,1.520659
3.003443,2.449817,2.069451,1.515824
2.979267,2.430476,2.063810,1.515018
2.969597,2.433700,2.048498,1.512601
2.991355,2.444982,2.054139,1.507766
2.989743,2.450623,2.056557,1.517436
2.988938,2.438535,2.063004,1.512601
2.974432,2.432894,2.050110,1.508571
2.996996,2.442564,2.066227,1.511795
2.977656,2.436117,2.049304,1.507766
2.977656,2.440146,2.049304,1.511795
2.995385,2.442564,2.064615,1.511795
2.976850,2.406300,2.063004,1.492454
2.980879,2.425641,2.057363,1.502125
2.996996,2.434505,2.070256,1.507766
2.980073,2.428864,2.056557,1.505348
3.011502,2.444982,2.069451,1.502930
3.001026,2.438535,2.070256,1.507766
2.992161,2.441758,2.049304,1.498901
2.983297,2.442564,2.051722,1.510989
2.976850,2.424835,2.048498,1.496484
2.990550,2.448205,2.049304,1.506960
2.976850,2.420000,2.050110,1.493260
2.983297,2.425641,2.050110,1.492454
2.978462,2.436923,2.048498,1.506960
2.985714,2.436117,2.052527,1.502930
2.987326,2.446594,2.046886,1.506154
2.981685,2.450623,2.040440,1.509377
2.989743,2.444176,2.052527,1.506960
2.986520,2.444982,2.049304,1.507766
2.991355,2.437729,2.053333,1.499707
2.973626,2.427253,2.049304,1.502930
2.977656,2.430476,2.049304,1.502125
2.987326,2.434505,2.046081,1.493260
2.965568,2.417583,2.047692,1.499707
2.997802,2.450623,2.054945,1.507766
2.970403,2.424029,2.041245,1.494872
2.989743,2.429670,2.054139,1.494066
2.965568,2.426447,2.036410,1.497289
2.996996,2.438535,2.066227,1.507766
2.998608,2.441758,2.056557,1.499707
2.988132,2.444982,2.052527,1.509377
2.975238,2.443370,2.047692,1.515824
3.001832,2.438535,2.063004,1.499707
2.989743,2.445787,2.063810,1.519853
2.988132,2.453846,2.065421,1.531136
2.984102,2.451429,2.071062,1.538388
2.987326,2.453846,2.066227,1.532747
2.986520,2.476410,2.056557,1.546447
3.009890,2.482857,2.079121,1.552088
2.994579,2.478022,2.075897,1.559341
3.006667,2.472381,2.096850,1.562564
2.995385,2.481246,2.080733,1.566593
3.009084,2.488498,2.092015,1.571429
3.017143,2.504615,2.101685,1.589157
3.009890,2.501392,2.098462,1.589963
3.019560,2.515898,2.114579,1.610916
3.029231,2.513480,2.113773,1.598022
3.013919,2.503004,2.113773,1.602857
3.026007,2.515898,2.125055,1.614945
3.020366,2.511062,2.130696,1.621392
3.019560,2.516703,2.125861,1.623004
3.025202,2.520733,2.125861,1.621392
3.022784,2.524762,2.129890,1.631868
3.018754,2.524762,2.134725,1.640733
3.042125,2.535238,2.143590,1.636703
3.030037,2.517509,2.141978,1.629451
3.038095,2.557802,2.138755,1.658462
3.030843,2.536850,2.140366,1.646374
3.023590,2.535238,2.130696,1.642344
3.034872,2.530403,2.145201,1.640733
3.023590,2.546520,2.146813,1.669744
3.026813,2.532015,2.145201,1.650403
3.025202,2.523150,2.140366,1.638315
3.026813,2.533626,2.145201,1.652015
3.035678,2.553773,2.143590,1.661685
3.016337,2.527179,2.139560,1.650403
3.042930,2.529597,2.154872,1.641539
3.016337,2.532015,2.137949,1.653626
3.028425,2.544909,2.138755,1.655238
3.022784,2.535238,2.141978,1.654432
3.013919,2.533626,2.141978,1.661685
3.030843,2.547326,2.141172,1.657656
3.030843,2.538461,2.145201,1.652820
3.030037,2.545714,2.140366,1.656044
3.042125,2.548132,2.151648,1.657656
3.006667,2.526374,2.133919,1.653626
3.048571,2.555385,2.149231,1.656044
3.033260,2.536850,2.138755,1.642344
3.037289,2.551355,2.147619,1.661685
3.039707,2.540073,2.154066,1.654432
3.054213,2.548938,2.165348,1.660073
3.035678,2.530403,2.146813,1.641539
3.012308,2.530403,2.135531,1.653626
3.034066,2.534432,2.153260,1.653626
3.032454,2.544909,2.146813,1.659267
3.021172,2.547326,2.131502,1.657656
3.018754,2.535238,2.137143,1.653626
3.025202,2.542491,2.145201,1.662491
3.027619,2.532015,2.154872,1.659267
3.026813,2.538461,2.152454,1.664103
3.030843,2.523956,2.152454,1.645568
3.029231,2.533626,2.150037,1.654432
3.033260,2.544909,2.151648,1.663297
3.030037,2.552967,2.151648,1.674579
3.034872,2.542491,2.152454,1.660073
3.030843,2.541685,2.149231,1.660073
3.031648,2.536044,2.146813,1.651209
3.026813,2.552161,2.148425,1.673773
3.038095,2.539267,2.141172,1.642344
3.029231,2.556190,2.139560,1.666520
3.023590,2.531209,2.146813,1.654432
3.036484,2.542491,2.144396,1.650403
3.026007,2.536044,2.146813,1.656850
3.046960,2.522344,2.156483,1.631868
3.021172,2.523150,2.137143,1.639121
3.028425,2.527985,2.137143,1.636703
3.033260,2.527179,2.143590,1.637509
3.023590,2.521538,2.146813,1.644762
3.026007,2.511062,2.138755,1.623810
3.007473,2.510257,2.133919,1.636703
3.020366,2.510257,2.132308,1.622198
3.028425,2.519927,2.134725,1.626227
3.017143,2.526374,2.129890,1.639121
3.019560,2.511062,2.132308,1.623810
3.034066,2.518315,2.144396,1.628645
3.024396,2.503004,2.126667,1.605275
3.021172,2.514286,2.121831,1.614945
3.029231,2.508645,2.135531,1.614945
3.028425,2.512674,2.126667,1.610916
3.022784,2.504615,2.129084,1.610916
3.015531,2.511868,2.115385,1.611722
3.016337,2.493333,2.121831,1.598828
3.041319,2.512674,2.133919,1.605275
3.025202,2.510257,2.125861,1.610916
3.013113,2.496557,2.126667,1.610110
3.013113,2.483663,2.114579,1.585128
3.017143,2.498168,2.118608,1.599634
3.009890,2.487692,2.121026,1.598828
3.005055,2.497363,2.114579,1.606887
3.021172,2.504615,2.125861,1.609304
3.026007,2.503004,2.121831,1.598828
3.019560,2.502198,2.122637,1.605275
3.018754,2.499780,2.125055,1.606081
3.026813,2.508645,2.116190,1.598022
3.010696,2.492527,2.121831,1.603663
3.038901,2.507839,2.126667,1.595604
3.024396,2.494139,2.126667,1.596410
3.022784,2.500586,2.124249,1.602051
3.004249,2.488498,2.113773,1.598022
3.023590,2.518315,2.128278,1.623004
2.991355,2.490110,2.113773,1.612527
3.019560,2.509450,2.121026,1.610916
3.007473,2.498974,2.117802,1.609304
3.026007,2.506227,2.134725,1.614945
3.009084,2.514286,2.126667,1.631868
3.014725,2.496557,2.123443,1.605275
3.014725,2.511868,2.127473,1.624615
3.011502,2.493333,2.126667,1.608498
3.024396,2.503004,2.137949,1.616557
3.045348,2.501392,2.146813,1.602857
3.024396,2.519121,2.122637,1.617363
3.016337,2.498974,2.128278,1.610916
3.030037,2.518315,2.126667,1.614945
3.014725,2.501392,2.129084,1.615751
2.996191,2.501392,2.122637,1.627839
3.028425,2.504615,2.134725,1.610916
3.018754,2.507839,2.129084,1.618168
3.016337,2.498974,2.126667,1.609304
3.017143,2.505421,2.126667,1.614945
3.035678,2.507839,2.138755,1.610916
3.007473,2.499780,2.113773,1.606081
3.025202,2.515092,2.130696,1.620586
3.015531,2.504615,2.126667,1.615751
3.033260,2.508645,2.134725,1.610110
3.016337,2.491722,2.130696,1.606081
3.023590,2.496557,2.129084,1.602051
3.024396,2.503004,2.126667,1.605275
3.001832,2.494945,2.116190,1.609304
3.018754,2.495751,2.133919,1.610916
3.030037,2.505421,2.138755,1.614139
3.023590,2.500586,2.126667,1.603663
3.011502,2.502198,2.121831,1.612527
3.029231,2.521538,2.125861,1.618168
3.025202,2.503004,2.127473,1.605275
3.017949,2.502198,2.126667,1.610916
3.014725,2.498974,2.113773,1.598022
3.005861,2.511062,2.113773,1.618974
3.024396,2.508645,2.126667,1.610916
3.016337,2.503004,2.121831,1.608498
3.018754,2.506227,2.112967,1.600440
3.029231,2.512674,2.113773,1.597216
3.014725,2.509450,2.116190,1.610916
3.013113,2.485275,2.114579,1.586740
3.010696,2.483663,2.125055,1.598022
3.018754,2.490110,2.117802,1.589157
3.015531,2.481246,2.121831,1.587546
3.014725,2.503809,2.108938,1.598022
3.030843,2.502198,2.125861,1.597216
3.017949,2.497363,2.121026,1.600440
3.008278,2.493333,2.108132,1.593187
3.006667,2.492527,2.100879,1.586740
2.990550,2.473993,2.108938,1.592381
3.002637,2.489304,2.100879,1.587546
3.015531,2.482051,2.121026,1.587546
3.029231,2.487692,2.119414,1.577875
3.023590,2.495751,2.112161,1.584322
3.021978,2.480440,2.126667,1.585128
2.999414,2.476410,2.109744,1.586740
3.018754,2.485275,2.121026,1.587546
3.021978,2.495751,2.111355,1.585128
3.012308,2.477216,2.098462,1.563370
2.996996,2.473187,2.104908,1.581099
3.015531,2.493333,2.107326,1.585128
3.005055,2.488498,2.100879,1.584322
3.005055,2.490916,2.099267,1.585128
3.016337,2.486887,2.105714,1.576264
2.988938,2.475604,2.096044,1.582711
3.000220,2.458681,2.101685,1.560147
3.010696,2.475604,2.115385,1.580293
3.008278,2.486887,2.093626,1.572234
3.013919,2.494139,2.100879,1.581099
3.011502,2.485275,2.111355,1.585128
3.012308,2.474798,2.106520,1.569011
3.009084,2.488498,2.104908,1.584322
3.022784,2.486887,2.112161,1.576264
2.996996,2.477216,2.088791,1.569011
2.983297,2.464322,2.092820,1.573846
3.017949,2.478022,2.113773,1.573846
3.006667,2.475604,2.104103,1.573040
3.015531,2.473993,2.100879,1.559341
3.030037,2.486887,2.116190,1.573040
3.003443,2.476410,2.100879,1.573846
3.011502,2.477216,2.098462,1.564176
2.996191,2.465934,2.106520,1.576264
3.024396,2.486887,2.112161,1.574652
2.999414,2.472381,2.086374,1.559341
3.016337,2.478022,2.100879,1.562564
2.993773,2.461099,2.092015,1.559341
3.008278,2.439341,2.112967,1.544029
3.005055,2.456264,2.103297,1.554505
2.995385,2.446594,2.098462,1.549670
3.016337,2.478022,2.103297,1.564982
3.005055,2.465934,2.109744,1.570623
3.021978,2.497363,2.108132,1.583516
2.990550,2.460293,2.090403,1.560147
3.016337,2.466740,2.104103,1.554505
3.001026,2.468352,2.092820,1.560147
2.988938,2.449817,2.087179,1.548059
3.017949,2.484469,2.092015,1.558535
3.002637,2.463516,2.086374,1.547253
2.997802,2.462711,2.092015,1.556923
3.009084,2.457070,2.096044,1.544029
2.980073,2.449011,2.079121,1.548059
2.968791,2.436117,2.079121,1.546447
2.990550,2.450623,2.083956,1.544029
3.001026,2.465934,2.087179,1.552088
3.007473,2.456264,2.100073,1.548864
3.003443,2.449011,2.096044,1.541612
3.012308,2.453040,2.108132,1.548864
2.995385,2.453040,2.088791,1.546447
2.992161,2.441758,2.083956,1.533553
3.012308,2.470769,2.098462,1.556923
3.004249,2.447399,2.100073,1.543224
3.003443,2.442564,2.096850,1.535971
2.997802,2.469157,2.082344,1.553700
3.017143,2.461905,2.099267,1.544029
2.988132,2.457070,2.077509,1.546447
2.992967,2.453040,2.078315,1.538388
2.991355,2.453040,2.088791,1.550476
2.992967,2.457070,2.079927,1.544029
2.995385,2.456264,2.090403,1.551282
2.991355,2.453846,2.083956,1.546447
3.002637,2.457875,2.087179,1.542418
3.001026,2.465128,2.082344,1.546447
2.993773,2.457070,2.082344,1.545641
3.002637,2.456264,2.088791,1.542418
3.010696,2.474798,2.089597,1.553700
2.986520,2.454652,2.083956,1.552088
2.998608,2.449817,2.087985,1.539194
2.999414,2.449011,2.083150,1.532747
2.997802,2.449817,2.083956,1.535971
2.991355,2.439341,2.085568,1.533553
2.988132,2.436117,2.087985,1.535971
3.004249,2.463516,2.078315,1.537582
2.989743,2.432088,2.070256,1.512601
2.989743,2.446594,2.082344,1.539194
3.000220,2.444982,2.087179,1.531941
2.981685,2.453040,2.070256,1.541612
2.988132,2.447399,2.087985,1.547253
2.995385,2.458681,2.071062,1.534359
3.023590,2.455458,2.095238,1.527106
2.978462,2.440146,2.067839,1.529524
2.985714,2.420000,2.079121,1.513407
2.983297,2.449817,2.069451,1.535971
2.996191,2.444982,2.079121,1.527912
2.988938,2.450623,2.067839,1.529524
2.985714,2.436923,2.082344,1.533553
2.999414,2.442564,2.089597,1.532747
2.973626,2.445787,2.063004,1.535165
2.990550,2.436923,2.074286,1.520659
2.984102,2.423223,2.076703,1.515824
3.004249,2.436117,2.083150,1.515018
2.992161,2.424029,2.076703,1.508571
2.993773,2.432894,2.075897,1.515018
2.996191,2.431282,2.076703,1.511795
2.990550,2.430476,2.067839,1.507766
2.971209,2.418388,2.063004,1.510183
2.988132,2.432088,2.075092,1.519048
2.988938,2.432088,2.073480,1.516630
2.990550,2.412747,2.075092,1.497289
2.970403,2.423223,2.063004,1.515824
2.984908,2.426447,2.073480,1.515018
2.975238,2.436117,2.067033,1.527912
2.976044,2.434505,2.056557,1.515018
2.993773,2.434505,2.071062,1.511795
2.975238,2.421612,2.063004,1.509377
2.977656,2.440146,2.057363,1.519853
2.992967,2.415165,2.074286,1.496484
2.982491,2.454652,2.054139,1.526300
2.992161,2.436923,2.071062,1.515824
2.989743,2.438535,2.074286,1.523077
2.988938,2.458681,2.069451,1.539194
2.983297,2.447399,2.075092,1.539194
2.989743,2.467546,2.069451,1.547253
2.990550,2.461905,2.075897,1.547253
3.012308,2.476410,2.096850,1.560952
3.001026,2.470769,2.096850,1.566593
3.018754,2.478022,2.115385,1.574652
3.001832,2.482051,2.101685,1.581905
3.009890,2.490110,2.106520,1.586740
2.995385,2.473993,2.105714,1.584322
