3.282176,3.298736,2.730256,3.257289
3.282196,3.298756,2.727033,3.261319
3.282110,3.298595,2.728645,3.255678
3.282085,3.298701,2.727033,3.259707
3.282166,3.298761,2.727033,3.257289
3.282216,3.298640,2.731868,3.261319
3.282060,3.298595,2.723004,3.253260
3.282145,3.298721,2.726227,3.258095
3.282045,3.298696,2.725421,3.255678
3.282176,3.298605,2.723809,3.256484
3.281889,3.298585,2.719780,3.250037
3.282014,3.298696,2.719780,3.253260
3.281949,3.298671,2.719780,3.254066
3.281904,3.298565,2.718168,3.253260
3.281868,3.298565,2.719780,3.250843
3.281883,3.298620,2.707692,3.256484
3.281873,3.298691,2.718974,3.257289
3.281788,3.298520,2.718168,3.251648
3.281808,3.298651,2.718974,3.255678
3.281798,3.298656,2.719780,3.251648
3.281848,3.298656,2.718974,3.259707
3.281778,3.298469,2.714139,3.249231
3.281758,3.298610,2.718168,3.253260
3.281768,3.298530,2.714945,3.255678
3.281813,3.298424,2.718168,3.246007
3.281637,3.298509,2.714139,3.249231
3.281732,3.298585,2.714945,3.249231
3.281788,3.298540,2.717363,3.250843
3.281793,3.298525,2.708498,3.249231
3.281707,3.298520,2.714945,3.250037
3.281778,3.298580,2.708498,3.253260
3.281778,3.298666,2.715751,3.257289
3.281763,3.298499,2.714139,3.248425
3.281742,3.298645,2.715751,3.257289
3.281763,3.298555,2.716557,3.250843
3.281863,3.298676,2.718974,3.258095
3.281717,3.298439,2.715751,3.249231
3.281798,3.298580,2.710916,3.250037
3.281747,3.298600,2.716557,3.255678
3.281768,3.298494,2.718974,3.250037
3.281617,3.298469,2.711722,3.249231
3.281753,3.298640,2.713333,3.257289
3.281758,3.298575,2.717363,3.252454
3.281581,3.298494,2.723004,3.249231
3.281561,3.298479,2.709304,3.248425
3.281642,3.298565,2.712528,3.250843
3.281652,3.298681,2.714945,3.249231
3.281561,3.298525,2.709304,3.249231
3.281581,3.298545,2.705275,3.250037
3.281596,3.298494,2.709304,3.248425
3.281672,3.298620,2.710916,3.254066
3.281476,3.298409,2.708498,3.248425
3.281481,3.298520,2.707692,3.249231
3.281506,3.298479,2.711722,3.253260
3.281556,3.298525,2.706081,3.250037
3.281350,3.298414,2.702051,3.248425
3.281476,3.298424,2.707692,3.251648
3.281445,3.298489,2.706887,3.249231
3.281425,3.298394,2.704469,3.246813
3.281309,3.298399,2.702857,3.246007
3.281491,3.298444,2.702051,3.248425
3.281390,3.298595,2.701245,3.248425
3.281365,3.298389,2.710916,3.248425
3.281234,3.298454,2.701245,3.248425
3.281314,3.298474,2.702857,3.249231
3.281385,3.298545,2.701245,3.250037
3.281294,3.298379,2.699634,3.246813
3.281284,3.298469,2.702051,3.252454
3.281355,3.298444,2.703663,3.248425
3.281340,3.298520,2.706081,3.250843
3.281158,3.298368,2.693993,3.246007
3.281198,3.298414,2.697216,3.247619
3.281209,3.298429,2.702051,3.248425
3.281193,3.298409,2.693993,3.254066
3.281073,3.298404,2.697216,3.248425
3.281103,3.298414,2.703663,3.248425
3.281138,3.298494,2.694798,3.248425
3.281118,3.298384,2.702051,3.246813
3.281052,3.298404,2.695604,3.246813
3.281118,3.298424,2.692381,3.246007
3.281093,3.298429,2.693993,3.250037
3.281047,3.298333,2.694798,3.246007
3.281057,3.298404,2.693993,3.248425
3.281093,3.298429,2.693993,3.246007
3.281138,3.298484,2.696410,3.247619
3.280997,3.298323,2.691575,3.239560
3.281073,3.298394,2.694798,3.248425
3.281057,3.298389,2.694798,3.248425
3.281002,3.298333,2.698828,3.237143
3.280977,3.298363,2.690769,3.246007
3.281098,3.298379,2.693187,3.248425
3.281057,3.298404,2.689963,3.247619
3.280937,3.298363,2.697216,3.246813
3.280992,3.298384,2.691575,3.247619
3.281037,3.298424,2.689963,3.248425
3.281052,3.298464,2.691575,3.250843
3.280992,3.298308,2.693187,3.245201
3.281002,3.298419,2.688352,3.248425
3.280982,3.298429,2.689157,3.247619
3.281062,3.298379,2.693993,3.245201
3.280927,3.298293,2.692381,3.241172
3.281062,3.298454,2.691575,3.246007
3.280997,3.298394,2.693993,3.244395
3.281057,3.298263,2.692381,3.248425
3.280831,3.298313,2.688352,3.244395
3.280901,3.298389,2.689157,3.248425
3.281012,3.298384,2.692381,3.246813
3.280796,3.298338,2.685934,3.245201
3.280856,3.298333,2.688352,3.246007
3.280856,3.298373,2.688352,3.244395
3.280962,3.298414,2.688352,3.248425
3.280841,3.298338,2.689157,3.244395
3.280831,3.298394,2.686740,3.248425
3.280846,3.298353,2.689157,3.248425
3.280957,3.298363,2.688352,3.246007
3.280780,3.298258,2.686740,3.239560
3.280911,3.298379,2.685934,3.247619
3.280821,3.298353,2.685934,3.246813
3.280911,3.298318,2.688352,3.247619
3.280715,3.298263,2.681905,3.239560
3.280952,3.298368,2.689157,3.244395
3.280816,3.298373,2.688352,3.248425
3.280780,3.298318,2.681099,3.248425
3.280700,3.298333,2.681905,3.243590
3.280745,3.298363,2.688352,3.246007
3.280801,3.298429,2.685128,3.247619
3.280660,3.298238,2.677070,3.245201
3.280700,3.298368,2.681099,3.242784
3.280745,3.298328,2.685934,3.246007
3.280821,3.298379,2.685128,3.248425
3.280670,3.298172,2.681099,3.241172
3.280685,3.298328,2.681099,3.247619
3.280690,3.298389,2.684322,3.246813
3.280770,3.298343,2.682711,3.240366
3.280569,3.298217,2.681099,3.239560
3.280765,3.298338,2.686740,3.248425
3.280715,3.298343,2.679487,3.246813
3.280745,3.298273,2.687546,3.246813
3.280634,3.298263,2.677876,3.242784
3.280710,3.298318,2.683517,3.246007
3.280675,3.298389,2.680293,3.247619
3.280579,3.298243,2.681905,3.243590
3.280609,3.298288,2.680293,3.244395
3.280624,3.298318,2.682711,3.246813
3.280695,3.298348,2.680293,3.248425
3.280629,3.298177,2.681099,3.244395
3.280665,3.298353,2.680293,3.245201
3.280660,3.298353,2.681099,3.246007
3.280695,3.298283,2.682711,3.240366
3.280614,3.298278,2.681099,3.242784
3.280715,3.298338,2.681099,3.242784
3.280639,3.298348,2.680293,3.243590
3.280660,3.298328,2.681905,3.243590
3.280483,3.298298,2.677070,3.238755
3.280639,3.298313,2.678681,3.248425
3.280604,3.298323,2.678681,3.243590
3.280398,3.298248,2.671429,3.246007
3.280514,3.298243,2.676264,3.240366
3.280579,3.298298,2.678681,3.243590
3.280584,3.298363,2.675458,3.247619
3.280514,3.298238,2.677070,3.239560
3.280493,3.298318,2.673040,3.243590
3.280514,3.298303,2.678681,3.246813
3.280675,3.298353,2.681905,3.248425
3.280544,3.298182,2.673040,3.239560
3.280665,3.298343,2.679487,3.243590
3.280639,3.298353,2.682711,3.244395
3.280609,3.298343,2.688352,3.247619
3.280644,3.298293,2.677876,3.242784
3.280826,3.298333,2.690769,3.247619
3.280806,3.298404,2.688352,3.248425
3.280821,3.298353,2.684322,3.248425
3.280957,3.298389,2.693187,3.246007
3.281168,3.298389,2.692381,3.248425
3.281158,3.298520,2.694798,3.248425
3.281153,3.298409,2.697216,3.248425
3.281365,3.298509,2.703663,3.250843
3.281476,3.298580,2.704469,3.253260
3.281677,3.298595,2.714139,3.249231
3.281601,3.298454,2.714139,3.250843
3.281707,3.298565,2.710916,3.250843
3.281697,3.298635,2.711722,3.257289
3.281904,3.298479,2.712528,3.249231
3.281697,3.298555,2.713333,3.252454
3.281848,3.298691,2.723809,3.253260
3.281843,3.298681,2.720586,3.257289
3.281833,3.298565,2.718974,3.251648
3.281828,3.298661,2.718168,3.252454
3.281914,3.298686,2.730256,3.258901
3.281894,3.298786,2.720586,3.261319
3.281894,3.298620,2.718168,3.254066
3.281914,3.298726,2.723004,3.253260
3.281989,3.298721,2.721392,3.254872
3.282115,3.298766,2.725421,3.258901
3.281959,3.298555,2.719780,3.254066
3.282009,3.298711,2.721392,3.257289
3.281989,3.298736,2.727033,3.259707
3.282120,3.298635,2.727839,3.260513
3.281929,3.298620,2.723004,3.253260
3.282100,3.298706,2.723809,3.257289
3.282030,3.298671,2.724615,3.257289
3.282191,3.298630,2.730256,3.254066
3.281919,3.298656,2.719780,3.257289
3.282040,3.298726,2.723809,3.258095
3.282014,3.298781,2.727033,3.258095
3.282045,3.298635,2.729450,3.255678
3.282085,3.298701,2.723809,3.258901
3.282090,3.298766,2.727839,3.261319
3.282181,3.298766,2.727033,3.261319
3.282075,3.298595,2.727839,3.252454
3.282070,3.298691,2.724615,3.258095
3.282105,3.298731,2.723809,3.261319
3.282201,3.298671,2.732674,3.256484
3.281994,3.298635,2.724615,3.255678
3.282150,3.298701,2.730256,3.258095
3.282125,3.298746,2.724615,3.253260
3.282009,3.298656,2.733480,3.261319
3.281964,3.298640,2.719780,3.257289
3.282065,3.298746,2.724615,3.258901
3.282050,3.298751,2.727839,3.256484
3.281924,3.298625,2.720586,3.252454
3.281939,3.298610,2.721392,3.255678
3.281969,3.298656,2.727839,3.254066
3.281954,3.298726,2.721392,3.257289
3.281878,3.298484,2.719780,3.250843
3.281873,3.298656,2.719780,3.254872
3.281863,3.298610,2.719780,3.254066
3.281878,3.298676,2.721392,3.260513
3.281753,3.298489,2.715751,3.250037
3.281813,3.298545,2.719780,3.248425
3.281803,3.298560,2.719780,3.250843
3.281818,3.298509,2.719780,3.255678
3.281591,3.298509,2.708498,3.250843
3.281768,3.298520,2.719780,3.258095
3.281737,3.298605,2.714945,3.251648
3.281652,3.298499,2.718168,3.253260
3.281637,3.298509,2.715751,3.250843
3.281682,3.298550,2.719780,3.252454
3.281747,3.298676,2.717363,3.254872
3.281647,3.298489,2.711722,3.248425
3.281707,3.298640,2.717363,3.255678
3.281737,3.298600,2.716557,3.252454
3.281858,3.298645,2.718974,3.257289
3.281622,3.298434,2.711722,3.248425
3.281783,3.298570,2.715751,3.250843
3.281707,3.298540,2.717363,3.250843
3.281697,3.298620,2.715751,3.256484
3.281551,3.298429,2.710916,3.249231
3.281747,3.298499,2.719780,3.248425
3.281737,3.298555,2.712528,3.252454
3.281747,3.298469,2.709304,3.250037
3.281611,3.298494,2.710916,3.252454
3.281773,3.298525,2.707692,3.252454
3.281677,3.298661,2.711722,3.253260
3.281516,3.298449,2.709304,3.250037
3.281546,3.298555,2.714945,3.250037
3.281632,3.298590,2.711722,3.254066
3.281747,3.298535,2.710916,3.255678
3.281541,3.298389,2.709304,3.250843
3.281561,3.298590,2.709304,3.250843
3.281541,3.298479,2.711722,3.248425
3.281586,3.298444,2.710916,3.258901
3.281375,3.298444,2.707692,3.248425
3.281571,3.298525,2.706887,3.260513
3.281460,3.298504,2.707692,3.251648
3.281390,3.298439,2.704469,3.248425
3.281350,3.298394,2.702051,3.248425
3.281375,3.298494,2.702857,3.250843
3.281435,3.298615,2.706081,3.250843
3.281370,3.298399,2.704469,3.250037
3.281324,3.298434,2.703663,3.248425
3.281400,3.298479,2.704469,3.249231
3.281440,3.298439,2.705275,3.252454
3.281264,3.298379,2.698022,3.248425
3.281304,3.298454,2.704469,3.250037
3.281345,3.298439,2.704469,3.248425
3.281395,3.298469,2.706081,3.248425
3.281224,3.298353,2.695604,3.246813
3.281274,3.298449,2.706887,3.249231
3.281239,3.298459,2.702857,3.249231
3.281329,3.298379,2.707692,3.248425
3.281108,3.298384,2.693993,3.247619
3.281153,3.298434,2.698828,3.249231
3.281199,3.298545,2.698828,3.252454
3.281224,3.298404,2.702051,3.246007
3.281163,3.298394,2.697216,3.248425
3.281173,3.298444,2.698022,3.249231
3.281188,3.298479,2.698022,3.248425
3.281073,3.298363,2.694798,3.248425
3.281098,3.298399,2.693993,3.248425
3.281103,3.298419,2.694798,3.247619
3.281224,3.298474,2.698022,3.247619
3.281098,3.298333,2.693187,3.239560
3.281083,3.298399,2.693993,3.248425
3.281078,3.298429,2.693993,3.247619
3.281143,3.298313,2.693993,3.246007
3.280977,3.298368,2.692381,3.246007
3.281042,3.298389,2.693993,3.247619
3.281078,3.298419,2.693187,3.248425
3.280997,3.298363,2.693993,3.243590
3.281037,3.298394,2.691575,3.248425
3.281052,3.298389,2.696410,3.248425
3.281068,3.298459,2.694798,3.249231
3.281027,3.298358,2.689157,3.246813
3.281047,3.298414,2.693187,3.247619
3.281052,3.298399,2.692381,3.246813
3.281088,3.298449,2.696410,3.250843
3.280937,3.298358,2.691575,3.245201
3.281047,3.298373,2.693993,3.245201
3.281042,3.298389,2.691575,3.246813
3.280932,3.298212,2.693187,3.249231
3.280841,3.298368,2.689157,3.245201
3.281052,3.298384,2.691575,3.243590
3.281002,3.298373,2.688352,3.247619
3.280846,3.298379,2.695604,3.240366
3.280816,3.298384,2.688352,3.246007
3.280927,3.298358,2.685934,3.246813
3.280927,3.298414,2.691575,3.248425
3.280831,3.298308,2.685934,3.243590
3.280846,3.298399,2.686740,3.248425
3.280876,3.298368,2.689963,3.243590
3.280992,3.298449,2.693993,3.248425
3.280755,3.298253,2.683517,3.242784
3.280916,3.298424,2.683517,3.246007
3.280831,3.298363,2.682711,3.247619
3.280896,3.298222,2.689157,3.248425
3.280735,3.298288,2.685128,3.242784
3.280871,3.298368,2.683517,3.244395
3.280816,3.298368,2.688352,3.246007
3.280801,3.298338,2.688352,3.243590
3.280715,3.298328,2.680293,3.246007
3.280816,3.298353,2.685128,3.244395
3.280750,3.298434,2.689963,3.248425
3.280715,3.298278,2.683517,3.246007
3.280675,3.298348,2.681099,3.246007
3.280740,3.298368,2.681099,3.244395
3.280851,3.298439,2.681905,3.247619
3.280680,3.298243,2.681099,3.241172
3.280705,3.298373,2.681905,3.248425
3.280735,3.298318,2.683517,3.243590
3.280826,3.298313,2.682711,3.244395
3.280624,3.298263,2.678681,3.241172
3.280710,3.298348,2.681099,3.241978
3.280680,3.298328,2.685128,3.246813
3.280911,3.298283,2.683517,3.240366
3.280624,3.298308,2.677876,3.246007
3.280806,3.298353,2.677876,3.241172
3.280660,3.298394,2.681905,3.246813
3.280519,3.298253,2.681099,3.243590
3.280634,3.298333,2.680293,3.245201
3.280660,3.298328,2.681099,3.242784
3.280685,3.298368,2.681905,3.246813
3.280644,3.298157,2.680293,3.239560
3.280589,3.298328,2.678681,3.243590
3.280554,3.298338,2.679487,3.244395
3.280675,3.298273,2.682711,3.243590
3.280498,3.298197,2.680293,3.240366
3.280539,3.298238,2.680293,3.249231
3.280579,3.298308,2.680293,3.246007
3.280660,3.298202,2.681099,3.246007
3.280393,3.298243,2.672235,3.238755
3.280574,3.298313,2.677070,3.242784
3.280493,3.298368,2.673846,3.243590
3.280589,3.298227,2.681099,3.243590
3.280473,3.298298,2.673846,3.241172
3.280483,3.298283,2.679487,3.243590
3.280549,3.298379,2.679487,3.246007
3.280463,3.298157,2.673040,3.237143
3.280438,3.298258,2.670623,3.243590
3.280524,3.298258,2.677876,3.241978
3.280529,3.298348,2.675458,3.237949
3.280307,3.298127,2.668205,3.237143
3.280362,3.298187,2.675458,3.242784
3.280413,3.298268,2.675458,3.237949
3.280478,3.298238,2.677876,3.248425
3.280257,3.298152,2.668205,3.239560
3.280534,3.298238,2.676264,3.238755
3.280398,3.298248,2.675458,3.242784
3.280287,3.298263,2.668205,3.239560
3.280357,3.298212,2.669011,3.240366
3.280378,3.298222,2.669817,3.242784
3.280498,3.298368,2.671429,3.246007
3.280539,3.298238,2.677070,3.240366
3.280614,3.298373,2.677876,3.246007
3.280710,3.298353,2.681099,3.247619
3.280856,3.298379,2.686740,3.248425
3.280796,3.298268,2.686740,3.243590
3.280982,3.298323,2.686740,3.249231
3.281027,3.298373,2.693993,3.247619
3.281168,3.298363,2.695604,3.248425
3.281057,3.298399,2.693993,3.248425
3.281319,3.298454,2.698828,3.253260
3.281380,3.298504,2.699634,3.248425
3.281319,3.298469,2.705275,3.249231
3.281390,3.298504,2.704469,3.251648
3.281586,3.298535,2.705275,3.250037
3.281591,3.298696,2.709304,3.258095
3.281541,3.298509,2.711722,3.251648
3.281622,3.298635,2.713333,3.250843
3.281697,3.298565,2.712528,3.255678
3.281823,3.298590,2.715751,3.254066
3.281662,3.298484,2.714139,3.248425
3.281773,3.298691,2.715751,3.254066
3.281803,3.298610,2.718168,3.255678
3.281747,3.298666,2.718168,3.258901
3.281642,3.298545,2.714139,3.248425
3.281742,3.298630,2.717363,3.254066
3.281753,3.298580,2.719780,3.255678
3.281672,3.298540,2.716557,3.257289
3.281702,3.298540,2.713333,3.252454
3.281692,3.298570,2.714945,3.256484
3.281783,3.298726,2.716557,3.256484
3.281702,3.298504,2.715751,3.250843
3.281687,3.298635,2.714945,3.252454
3.281798,3.298585,2.714945,3.252454
3.281863,3.298666,2.718974,3.258901
3.281737,3.298459,2.712528,3.254066
3.281722,3.298681,2.714945,3.251648
3.281717,3.298630,2.717363,3.257289
3.281818,3.298726,2.719780,3.260513
3.281697,3.298504,2.714945,3.249231
3.281803,3.298605,2.718168,3.250843
3.281778,3.298620,2.718974,3.253260
3.281763,3.298520,2.709304,3.246007
3.281758,3.298515,2.715751,3.251648
3.281773,3.298615,2.714945,3.253260
3.281833,3.298711,2.717363,3.255678
3.281813,3.298525,2.719780,3.255678
3.281778,3.298610,2.714945,3.253260
3.281798,3.298605,2.717363,3.253260
3.281848,3.298686,2.717363,3.256484
3.281712,3.298530,2.718974,3.250037
3.281747,3.298676,2.718168,3.257289
3.281788,3.298585,2.717363,3.253260
3.281828,3.298726,2.716557,3.258901
3.281581,3.298434,2.714139,3.249231
3.281732,3.298656,2.717363,3.250843
3.281637,3.298570,2.710916,3.250843
3.281692,3.298479,2.717363,3.258095
3.281521,3.298459,2.706887,3.248425
3.281682,3.298484,2.707692,3.249231
3.281521,3.298590,2.710916,3.253260
3.281647,3.298459,2.706887,3.248425
3.281370,3.298464,2.705275,3.248425
3.281460,3.298535,2.708498,3.250843
3.281455,3.298585,2.706081,3.253260
3.281400,3.298384,2.702051,3.250037
3.281440,3.298565,2.701245,3.250843
3.281460,3.298454,2.702857,3.250037
3.281546,3.298525,2.709304,3.255678
3.281319,3.298394,2.705275,3.247619
3.281460,3.298424,2.710916,3.247619
3.281425,3.298459,2.702857,3.250843
3.281400,3.298489,2.710916,3.248425
3.281345,3.298444,2.701245,3.247619
3.281491,3.298520,2.708498,3.253260
3.281455,3.298494,2.704469,3.249231
3.281445,3.298409,2.707692,3.249231
3.281385,3.298434,2.702051,3.250843
3.281425,3.298464,2.704469,3.248425
3.281445,3.298545,2.706887,3.254066
3.281390,3.298424,2.702857,3.247619
3.281410,3.298479,2.702051,3.253260
3.281410,3.298479,2.705275,3.250843
3.281541,3.298464,2.709304,3.253260
3.281355,3.298373,2.704469,3.246007
3.281476,3.298434,2.701245,3.248425
3.281375,3.298479,2.702051,3.249231
3.281365,3.298424,2.709304,3.258901
3.281224,3.298414,2.698022,3.248425
3.281355,3.298535,2.701245,3.249231
3.281375,3.298449,2.702051,3.250843
3.281380,3.298414,2.708498,3.248425
3.281234,3.298414,2.695604,3.248425
3.281214,3.298444,2.698022,3.250843
3.281279,3.298595,2.698022,3.255678
3.281163,3.298409,2.698828,3.248425
3.281204,3.298459,2.694798,3.248425
3.281249,3.298419,2.696410,3.248425
3.281340,3.298469,2.699634,3.250037
3.281163,3.298353,2.696410,3.247619
3.281219,3.298444,2.698022,3.248425
3.281148,3.298404,2.694798,3.250037
3.281259,3.298454,2.698828,3.248425
3.281052,3.298348,2.692381,3.246813
3.281163,3.298373,2.701245,3.246813
3.281128,3.298389,2.696410,3.248425
3.281204,3.298353,2.693993,3.244395
3.281007,3.298358,2.692381,3.248425
3.281098,3.298384,2.693187,3.248425
3.281068,3.298479,2.693993,3.248425
3.281032,3.298363,2.693993,3.246813
3.281027,3.298419,2.693187,3.246813
3.281057,3.298394,2.689963,3.248425
3.281093,3.298444,2.693187,3.248425
3.281032,3.298298,2.693187,3.241172
3.281032,3.298409,2.689157,3.247619
3.281037,3.298389,2.693993,3.248425
3.281088,3.298454,2.693993,3.248425
3.280906,3.298328,2.686740,3.243590
3.281017,3.298303,2.693993,3.248425
3.281027,3.298389,2.693993,3.246813
3.281047,3.298308,2.699634,3.240366
3.280891,3.298333,2.689157,3.246813
3.280962,3.298389,2.693993,3.242784
3.280957,3.298434,2.689157,3.246007
3.280785,3.298368,2.691575,3.246007
3.280866,3.298343,2.685934,3.246813
3.280886,3.298368,2.688352,3.247619
3.280916,3.298404,2.689157,3.248425
3.280841,3.298308,2.685934,3.246813
3.280846,3.298394,2.685934,3.248425
3.280831,3.298368,2.688352,3.246813
3.280972,3.298404,2.693993,3.248425
3.280725,3.298253,2.685128,3.242784
3.280932,3.298373,2.689157,3.248425
3.280906,3.298343,2.689157,3.244395
3.280911,3.298313,2.689963,3.240366
3.280710,3.298278,2.682711,3.244395
3.280745,3.298373,2.682711,3.246813
3.280821,3.298353,2.686740,3.247619
3.280876,3.298313,2.680293,3.241172
3.280720,3.298303,2.679487,3.244395
3.280770,3.298358,2.681905,3.246813
3.280755,3.298399,2.685128,3.248425
3.280710,3.298237,2.683517,3.246007
3.280675,3.298363,2.682711,3.245201
3.280750,3.298338,2.685128,3.245201
3.280831,3.298328,2.687546,3.246007
3.280624,3.298237,2.681905,3.241172
3.280811,3.298293,2.685128,3.247619
3.280755,3.298373,2.683517,3.247619
3.280700,3.298268,2.682711,3.240366
3.280619,3.298283,2.676264,3.241172
3.280685,3.298414,2.684322,3.248425
3.280725,3.298343,2.681099,3.244395
3.280624,3.298253,2.677876,3.240366
3.280634,3.298258,2.679487,3.244395
3.280730,3.298323,2.681099,3.246007
3.280695,3.298389,2.682711,3.249231
3.280634,3.298253,2.677876,3.244395
3.280660,3.298363,2.681099,3.247619
3.280690,3.298288,2.684322,3.243590
3.280765,3.298318,2.681905,3.246007
3.280604,3.298157,2.680293,3.241978
3.280675,3.298328,2.681099,3.246813
3.280680,3.298318,2.679487,3.243590
3.280695,3.298207,2.677070,3.240366
3.280508,3.298207,2.675458,3.240366
3.280750,3.298308,2.681099,3.247619
3.280609,3.298333,2.681099,3.243590
3.280660,3.298268,2.682711,3.238755
3.280544,3.298243,2.676264,3.242784
3.280599,3.298323,2.682711,3.245201
3.280574,3.298373,2.681099,3.247619
3.280539,3.298258,2.676264,3.241172
3.280529,3.298303,2.675458,3.243590
3.280614,3.298293,2.677876,3.243590
3.280685,3.298288,2.680293,3.245201
3.280599,3.298177,2.677070,3.241172
3.280564,3.298248,2.680293,3.243590
3.280524,3.298298,2.677070,3.245201
3.280634,3.298268,2.679487,3.250037
3.280393,3.298187,2.669817,3.238755
3.280478,3.298273,2.681099,3.240366
3.280508,3.298283,2.673846,3.239560
3.280468,3.298212,2.677070,3.239560
3.280378,3.298212,2.673040,3.240366
3.280433,3.298293,2.676264,3.242784
3.280448,3.298368,2.672235,3.243590
3.280413,3.298172,2.668205,3.241172
3.280372,3.298303,2.672235,3.243590
3.280458,3.298268,2.673846,3.241172
3.280478,3.298333,2.672235,3.243590
3.280347,3.298107,2.669011,3.237143
3.280367,3.298298,2.670623,3.246813
3.280372,3.298253,2.670623,3.242784
3.280428,3.298237,2.675458,3.240366
3.280302,3.298147,2.672235,3.235531
3.280367,3.298268,2.670623,3.243590
3.280352,3.298263,2.670623,3.243590
3.280282,3.298197,2.679487,3.247619
3.280267,3.298182,2.665787,3.239560
3.280342,3.298207,2.669817,3.240366
3.280342,3.298278,2.672235,3.243590
3.280342,3.298187,2.666593,3.240366
3.280257,3.298182,2.668205,3.240366
3.280327,3.298212,2.667399,3.245201
3.280302,3.298328,2.668205,3.246007
3.280262,3.298096,2.667399,3.238755
3.280262,3.298202,2.668205,3.242784
3.280252,3.298227,2.668205,3.242784
3.280383,3.298263,2.676264,3.238755
3.280262,3.298112,2.669011,3.237949
3.280327,3.298288,2.672235,3.241172
3.280342,3.298308,2.672235,3.242784
3.280408,3.298081,2.681099,3.242784
3.280292,3.298243,2.669817,3.240366
3.280544,3.298313,2.673846,3.247619
3.280634,3.298343,2.680293,3.243590
3.280569,3.298313,2.681099,3.244395
3.280680,3.298343,2.681099,3.244395
3.280806,3.298379,2.689157,3.248425
3.280926,3.298459,2.689963,3.250843
3.280982,3.298373,2.689963,3.247619
3.281057,3.298429,2.688352,3.250037
3.281128,3.298459,2.697216,3.247619
3.281350,3.298520,2.704469,3.248425
3.281279,3.298389,2.698828,3.248425
3.281410,3.298525,2.702857,3.254066
3.281435,3.298535,2.702051,3.251648
3.281682,3.298520,2.704469,3.261319
3.281380,3.298520,2.704469,3.249231
3.281566,3.298499,2.710916,3.250037
3.281581,3.298515,2.711722,3.249231
3.281652,3.298449,2.721392,3.250843
3.281521,3.298545,2.708498,3.250843
3.281687,3.298560,2.706081,3.252454
3.281556,3.298696,2.710916,3.257289
3.281561,3.298459,2.706887,3.250037
3.281581,3.298575,2.709304,3.248425
3.281531,3.298515,2.709304,3.250843
3.281758,3.298635,2.714139,3.256484
3.281591,3.298409,2.708498,3.248425
3.281566,3.298494,2.710916,3.250843
3.281531,3.298575,2.714945,3.252454
3.281697,3.298484,2.714945,3.246813
3.281475,3.298434,2.706887,3.250037
3.281491,3.298575,2.710916,3.253260
3.281556,3.298525,2.712528,3.250843
3.281611,3.298494,2.710916,3.250843
3.281481,3.298484,2.704469,3.250843
3.281536,3.298545,2.702857,3.250037
3.281657,3.298666,2.708498,3.248425
3.281486,3.298515,2.714945,3.250037
3.281496,3.298540,2.704469,3.249231
3.281627,3.298580,2.709304,3.257289
3.281753,3.298590,2.712528,3.256484
3.281536,3.298424,2.708498,3.246813
3.281617,3.298605,2.711722,3.252454
3.281647,3.298525,2.710110,3.252454
3.281707,3.298479,2.714945,3.260513
3.281460,3.298414,2.707692,3.250037
3.281622,3.298525,2.712528,3.253260
3.281611,3.298535,2.707692,3.252454
3.281657,3.298454,2.711722,3.250843
3.281420,3.298459,2.705275,3.248425
3.281662,3.298484,2.705275,3.252454
3.281521,3.298620,2.708498,3.255678
3.281340,3.298464,2.697216,3.250037
3.281380,3.298454,2.704469,3.250843
3.281470,3.298525,2.706081,3.248425
3.281430,3.298509,2.704469,3.250843
3.281309,3.298384,2.699634,3.246007
3.281299,3.298459,2.698828,3.252454
3.281360,3.298404,2.702051,3.248425
3.281425,3.298525,2.704469,3.253260
3.281204,3.298363,2.698828,3.244395
3.281294,3.298384,2.704469,3.248425
3.281289,3.298449,2.693187,3.248425
3.281309,3.298414,2.694798,3.252454
3.281118,3.298389,2.695604,3.247619
3.281425,3.298414,2.700439,3.246007
3.281289,3.298469,2.702857,3.247619
3.281430,3.298394,2.699634,3.246813
3.281234,3.298404,2.698828,3.246813
3.281380,3.298459,2.704469,3.248425
3.281340,3.298535,2.698828,3.252454
3.281249,3.298419,2.701245,3.246007
3.281259,3.298484,2.698828,3.250843
3.281309,3.298454,2.698022,3.250843
3.281445,3.298454,2.707692,3.246007
3.281133,3.298363,2.694798,3.246007
3.281340,3.298399,2.707692,3.252454
3.281304,3.298414,2.699634,3.248425
3.281415,3.298394,2.702857,3.248425
3.281128,3.298404,2.693993,3.248425
3.281334,3.298439,2.702857,3.248425
3.281314,3.298504,2.703663,3.250843
3.281334,3.298399,2.701245,3.248425
3.281193,3.298414,2.694798,3.247619
3.281299,3.298484,2.700439,3.249231
3.281244,3.298545,2.701245,3.253260
3.281234,3.298409,2.696410,3.247619
3.281188,3.298429,2.698022,3.248425
3.281209,3.298479,2.699634,3.248425
3.281324,3.298454,2.705275,3.252454
3.281128,3.298363,2.694798,3.244395
3.281214,3.298449,2.693993,3.250037
3.281168,3.298389,2.693993,3.248425
3.281103,3.298389,2.698828,3.246813
3.281027,3.298368,2.691575,3.243590
3.281168,3.298419,2.693187,3.246813
3.281098,3.298409,2.694798,3.246813
3.281022,3.298368,2.693993,3.240366
3.281012,3.298389,2.692381,3.247619
3.280977,3.298368,2.691575,3.247619
3.281078,3.298494,2.693993,3.251648
3.281042,3.298333,2.691575,3.246007
3.281002,3.298414,2.693187,3.247619
3.281062,3.298373,2.693993,3.248425
3.281088,3.298399,2.693993,3.249231
3.281037,3.298298,2.691575,3.246007
3.281047,3.298389,2.690769,3.245201
3.281032,3.298373,2.698828,3.246813
3.281098,3.298258,2.694798,3.247619
3.280901,3.298338,2.688352,3.246007
3.280987,3.298353,2.690769,3.244395
3.281022,3.298384,2.692381,3.248425
3.281027,3.298333,2.693187,3.248425
3.280906,3.298328,2.686740,3.246007
3.280977,3.298389,2.693993,3.247619
3.280957,3.298464,2.689963,3.248425
3.280927,3.298348,2.693993,3.246007
3.280901,3.298384,2.683517,3.246813
3.280947,3.298399,2.686740,3.250037
3.280982,3.298389,2.685128,3.248425
3.280821,3.298298,2.685128,3.245201
3.280826,3.298338,2.686740,3.247619
3.280921,3.298373,2.685934,3.247619
3.280947,3.298379,2.689157,3.244395
3.280831,3.298333,2.686740,3.241978
3.280770,3.298399,2.689963,3.247619
3.280846,3.298373,2.685128,3.248425
3.280821,3.298152,2.681099,3.236337
3.280700,3.298323,2.682711,3.246007
3.280785,3.298368,2.683517,3.245201
3.280755,3.298394,2.689157,3.246813
3.280544,3.298298,2.681099,3.242784
3.280705,3.298323,2.681099,3.243590
3.280735,3.298338,2.680293,3.246007
3.280750,3.298399,2.681905,3.247619
3.280725,3.298258,2.681099,3.241172
3.280685,3.298358,2.681099,3.248425
3.280755,3.298358,2.681905,3.243590
3.280826,3.298358,2.688352,3.246813
3.280670,3.298202,2.681905,3.237949
3.280755,3.298333,2.686740,3.246813
3.280710,3.298338,2.679487,3.246007
3.280785,3.298273,2.678681,3.248425
3.280629,3.298283,2.680293,3.244395
3.280740,3.298353,2.689963,3.242784
3.280710,3.298343,2.681905,3.244395
3.280710,3.298323,2.679487,3.240366
3.280639,3.298308,2.680293,3.241172
3.280695,3.298373,2.679487,3.246813
3.280710,3.298373,2.681905,3.248425
3.280644,3.298248,2.678681,3.246007
3.280675,3.298348,2.680293,3.246007
3.280705,3.298313,2.681099,3.247619
3.280760,3.298298,2.685934,3.248425
3.280569,3.298172,2.682711,3.241172
3.280670,3.298303,2.680293,3.246007
3.280660,3.298318,2.680293,3.244395
3.280765,3.298293,2.685128,3.242784
3.280498,3.298283,2.675458,3.242784
3.280609,3.298358,2.679487,3.246813
3.280629,3.298348,2.680293,3.243590
3.280508,3.298278,2.685934,3.237949
3.280529,3.298283,2.675458,3.246007
3.280705,3.298313,2.683517,3.242784
3.280549,3.298384,2.680293,3.246007
3.280534,3.298243,2.680293,3.243590
3.280534,3.298348,2.675458,3.240366
3.280559,3.298303,2.678681,3.244395
3.280649,3.298323,2.680293,3.241978
3.280443,3.298162,2.673846,3.239560
3.280549,3.298263,2.673846,3.240366
3.280488,3.298298,2.673846,3.244395
3.280549,3.298227,2.677070,3.236337
3.280408,3.298232,2.671429,3.242784
3.280589,3.298232,2.670623,3.242784
3.280473,3.298303,2.673846,3.242784
3.280534,3.298227,2.668205,3.242784
3.280383,3.298227,2.671429,3.239560
3.280463,3.298313,2.673846,3.243590
3.280508,3.298368,2.677070,3.245201
3.280327,3.298152,2.672235,3.242784
3.280423,3.298283,2.673040,3.245201
3.280473,3.298278,2.673846,3.243590
3.280564,3.298348,2.674652,3.246813
3.280438,3.298122,2.673040,3.240366
3.280433,3.298268,2.673040,3.245201
3.280514,3.298288,2.669817,3.243590
3.280544,3.298167,2.677070,3.237143
3.280317,3.298162,2.669011,3.240366
3.280398,3.298323,2.668205,3.246813
3.280458,3.298253,2.668205,3.244395
3.280428,3.298202,2.670623,3.248425
3.280277,3.298162,2.668205,3.243590
3.280267,3.298253,2.668205,3.240366
3.280342,3.298343,2.669011,3.244395
3.280191,3.298192,2.662564,3.241172
3.280287,3.298212,2.668205,3.237949
3.280292,3.298248,2.669817,3.244395
3.280337,3.298333,2.669817,3.243590
3.280277,3.298112,2.668205,3.243590
3.280247,3.298283,2.669011,3.243590
3.280297,3.298268,2.669817,3.239560
3.280352,3.298313,2.671429,3.240366
3.280156,3.298137,2.664982,3.236337
3.280257,3.298318,2.671429,3.242784
3.280226,3.298207,2.669011,3.243590
3.280362,3.298096,2.665787,3.235531
3.280186,3.298157,2.664176,3.235531
3.280317,3.298227,2.670623,3.243590
3.280247,3.298217,2.667399,3.241172
3.280186,3.298132,2.665787,3.242784
3.280161,3.298172,2.664176,3.239560
3.280237,3.298232,2.667399,3.241172
3.280272,3.298303,2.669817,3.242784
3.280272,3.298222,2.669011,3.237143
3.280307,3.298318,2.668205,3.241172
3.280362,3.298222,2.672235,3.243590
3.280574,3.298384,2.681099,3.248425
3.280488,3.298197,2.678681,3.241978
3.280665,3.298303,2.681099,3.247619
3.280670,3.298358,2.683517,3.246007
3.280901,3.298459,2.681099,3.249231
3.280735,3.298348,2.685934,3.244395
3.280987,3.298404,2.689963,3.250037
3.281103,3.298429,2.693993,3.247619
3.281294,3.298389,2.693187,3.248425
3.281088,3.298439,2.693993,3.248425
3.281365,3.298464,2.707692,3.252454
3.281324,3.298590,2.701245,3.255678
3.281345,3.298459,2.707692,3.248425
3.281385,3.298640,2.702051,3.252454
3.281450,3.298580,2.706081,3.253260
3.281596,3.298645,2.714945,3.260513
3.281506,3.298444,2.705275,3.248425
3.281606,3.298625,2.705275,3.252454
3.281637,3.298580,2.708498,3.251648
3.281627,3.298535,2.714945,3.246007
3.281455,3.298504,2.708498,3.248425
3.281622,3.298570,2.707692,3.260513
3.281586,3.298545,2.709304,3.250037
3.281611,3.298489,2.715751,3.250037
3.281526,3.298494,2.706081,3.249231
3.281546,3.298575,2.714945,3.253260
3.281632,3.298691,2.714139,3.256484
3.281596,3.298499,2.715751,3.252454
3.281536,3.298585,2.709304,3.250037
3.281627,3.298560,2.714139,3.250037
3.281798,3.298676,2.714139,3.253260
3.281617,3.298434,2.712528,3.250843
3.281606,3.298635,2.710916,3.255678
3.281622,3.298605,2.713333,3.251648
3.281773,3.298565,2.717363,3.248425
3.281576,3.298479,2.706887,3.248425
3.281627,3.298645,2.717363,3.250037
3.281662,3.298555,2.714139,3.250843
3.281717,3.298515,2.708498,3.249231
3.281606,3.298530,2.708498,3.250037
3.281818,3.298595,2.714945,3.253260
3.281682,3.298721,2.715751,3.254066
3.281672,3.298499,2.706081,3.251648
3.281622,3.298535,2.707692,3.250843
3.281732,3.298620,2.714945,3.248425
3.281808,3.298640,2.714945,3.257289
3.281581,3.298424,2.713333,3.248425
3.281596,3.298535,2.710916,3.255678
3.281677,3.298605,2.712528,3.250843
3.281732,3.298419,2.718168,3.261319
3.281486,3.298444,2.705275,3.250037
3.281611,3.298515,2.709304,3.256484
3.281576,3.298530,2.712528,3.252454
3.281465,3.298419,2.714139,3.253260
3.281390,3.298439,2.705275,3.249231
3.281445,3.298484,2.708498,3.250037
3.281470,3.298545,2.706081,3.250843
3.281380,3.298434,2.702857,3.248425
3.281355,3.298449,2.702857,3.251648
3.281425,3.298515,2.701245,3.250037
3.281440,3.298565,2.703663,3.253260
3.281329,3.298379,2.702051,3.246007
3.281309,3.298454,2.705275,3.248425
3.281319,3.298540,2.702051,3.248425
3.281415,3.298504,2.705275,3.246007
3.281204,3.298379,2.701245,3.246007
3.281299,3.298504,2.702857,3.247619
3.281345,3.298489,2.702857,3.250037
3.281360,3.298368,2.698828,3.248425
3.281183,3.298394,2.697216,3.248425
3.281410,3.298489,2.698022,3.253260
3.281309,3.298489,2.701245,3.249231
3.281269,3.298404,2.704469,3.248425
3.281254,3.298434,2.698022,3.250037
3.281380,3.298459,2.702051,3.250843
3.281334,3.298555,2.703663,3.250843
3.281304,3.298363,2.699634,3.248425
3.281264,3.298479,2.696410,3.250037
3.281324,3.298449,2.702857,3.250843
3.281430,3.298535,2.704469,3.252454
3.281209,3.298384,2.702051,3.246813
3.281370,3.298479,2.700439,3.250843
3.281345,3.298494,2.704469,3.248425
3.281304,3.298555,2.702857,3.238755
3.281173,3.298399,2.693993,3.248425
3.281229,3.298444,2.693993,3.247619
3.281284,3.298424,2.695604,3.250037
3.281193,3.298394,2.698828,3.248425
3.281143,3.298394,2.693993,3.248425
3.281193,3.298409,2.701245,3.248425
3.281158,3.298489,2.698022,3.252454
3.281143,3.298343,2.693993,3.247619
3.281083,3.298464,2.693993,3.248425
3.281143,3.298394,2.695604,3.243590
3.281239,3.298434,2.694798,3.250037
3.281093,3.298353,2.693993,3.246007
3.281078,3.298399,2.694798,3.252454
3.281068,3.298414,2.695604,3.248425
3.281088,3.298328,2.696410,3.253260
3.280992,3.298328,2.691575,3.244395
3.281012,3.298424,2.686740,3.251648
3.281047,3.298399,2.693993,3.248425
3.280775,3.298363,2.691575,3.244395
3.280982,3.298363,2.689157,3.248425
3.281103,3.298379,2.698022,3.248425
3.281012,3.298530,2.693993,3.248425
3.281007,3.298318,2.691575,3.247619
3.280967,3.298404,2.685934,3.247619
3.281052,3.298373,2.691575,3.245201
3.281073,3.298394,2.693187,3.248425
3.280947,3.298308,2.689963,3.244395
3.280937,3.298414,2.688352,3.248425
3.280932,3.298379,2.685934,3.248425
3.280982,3.298318,2.693993,3.250037
3.280750,3.298323,2.685128,3.243590
3.280921,3.298358,2.692381,3.244395
3.280916,3.298389,2.688352,3.247619
3.280780,3.298268,2.693993,3.248425
3.280740,3.298343,2.684322,3.243590
3.280760,3.298363,2.681905,3.248425
3.280861,3.298439,2.685934,3.246813
3.280841,3.298308,2.683517,3.243590
3.280750,3.298353,2.683517,3.246007
3.280826,3.298363,2.681099,3.248425
3.280891,3.298389,2.685128,3.248425
3.280710,3.298298,2.681905,3.242784
3.280740,3.298363,2.685128,3.246007
3.280735,3.298358,2.681099,3.243590
3.280801,3.298434,2.688352,3.248425
3.280660,3.298263,2.684322,3.241172
3.280811,3.298343,2.685934,3.249231
3.280775,3.298363,2.688352,3.247619
3.280785,3.298268,2.691575,3.248425
3.280634,3.298318,2.680293,3.241172
3.280660,3.298363,2.682711,3.246813
3.280680,3.298384,2.683517,3.242784
3.280660,3.298273,2.681099,3.243590
3.280639,3.298323,2.681099,3.246007
3.280639,3.298343,2.671429,3.247619
3.280675,3.298394,2.680293,3.248425
3.280644,3.298243,2.681099,3.237949
3.280629,3.298303,2.678681,3.246813
3.280660,3.298333,2.680293,3.245201
3.280710,3.298343,2.681905,3.248425
3.280619,3.298243,2.675458,3.242784
3.280695,3.298384,2.681099,3.246813
3.280710,3.298333,2.681099,3.245201
3.280594,3.298293,2.676264,3.245201
3.280534,3.298263,2.677070,3.240366
3.280634,3.298318,2.685934,3.246007
3.280629,3.298358,2.680293,3.246007
3.280549,3.298237,2.682711,3.242784
3.280498,3.298298,2.676264,3.246813
3.280660,3.298338,2.679487,3.245201
3.280609,3.298389,2.678681,3.246813
3.280549,3.298248,2.678681,3.242784
3.280569,3.298373,2.678681,3.248425
3.280609,3.298338,2.678681,3.244395
3.280680,3.298308,2.680293,3.246813
3.280448,3.298147,2.677070,3.240366
3.280574,3.298258,2.677070,3.241978
3.280584,3.298353,2.678681,3.246007
3.280554,3.298273,2.676264,3.248425
3.280362,3.298192,2.670623,3.243590
3.280574,3.298288,2.675458,3.243590
3.280559,3.298298,2.676264,3.243590
3.280539,3.298258,2.669817,3.241172
3.280337,3.298263,2.671429,3.243590
3.280473,3.298253,2.672235,3.246007
3.280473,3.298373,2.673040,3.247619
3.280433,3.298132,2.672235,3.242784
3.280418,3.298273,2.672235,3.241978
3.280418,3.298283,2.675458,3.241978
3.280574,3.298338,2.675458,3.246813
3.280483,3.298137,2.673040,3.240366
3.280413,3.298248,2.672235,3.242784
3.280398,3.298248,2.673040,3.246813
3.280529,3.298086,2.673846,3.237143
3.280277,3.298117,2.668205,3.236337
3.280503,3.298293,2.678681,3.242784
3.280383,3.298298,2.672235,3.246007
3.280383,3.298258,2.669817,3.237949
3.280292,3.298212,2.668205,3.239560
3.280337,3.298268,2.671429,3.246007
3.280383,3.298368,2.670623,3.241172
3.280302,3.298197,2.676264,3.242784
3.280337,3.298217,2.669011,3.241172
3.280383,3.298222,2.669011,3.239560
3.280423,3.298313,2.672235,3.243590
3.280297,3.298122,2.669817,3.237143
3.280372,3.298217,2.668205,3.246813
3.280297,3.298258,2.673040,3.242784
3.280458,3.298232,2.672235,3.241172
3.280247,3.298122,2.668205,3.237949
3.280297,3.298147,2.669011,3.243590
3.280332,3.298253,2.668205,3.241172
3.280242,3.298091,2.670623,3.246007
3.280216,3.298197,2.666593,3.237949
3.280347,3.298273,2.676264,3.240366
3.280272,3.298298,2.670623,3.244395
3.280262,3.298172,2.664176,3.242784
3.280247,3.298248,2.667399,3.241978
3.280282,3.298232,2.668205,3.241172
3.280277,3.298288,2.668205,3.243590
3.280231,3.298096,2.668205,3.237949
3.280221,3.298152,2.668205,3.240366
3.280262,3.298222,2.668205,3.243590
3.280342,3.298167,2.669011,3.237949
3.280151,3.298066,2.663370,3.238755
3.280231,3.298182,2.669011,3.248425
3.280226,3.298182,2.664982,3.241172
3.280302,3.298248,2.669817,3.238755
3.280126,3.298172,2.664176,3.238755
3.280277,3.298207,2.668205,3.239560
3.280327,3.298268,2.667399,3.243590
3.280231,3.298237,2.666593,3.239560
3.280302,3.298187,2.669011,3.241172
3.280438,3.298253,2.669011,3.246007
3.280503,3.298363,2.674652,3.247619
3.280473,3.298268,2.677876,3.239560
3.280614,3.298404,2.679487,3.246813
3.280690,3.298358,2.680293,3.245201
3.280906,3.298368,2.689157,3.250037
3.280760,3.298298,2.688352,3.243590
3.281027,3.298429,2.693993,3.246813
3.281062,3.298449,2.691575,3.248425
3.281123,3.298474,2.696410,3.246007
3.281083,3.298389,2.694798,3.248425
3.281203,3.298509,2.699634,3.250037
3.281375,3.298525,2.702857,3.252454
3.281365,3.298404,2.717363,3.250843
3.281350,3.298469,2.703663,3.250037
3.281440,3.298540,2.704469,3.248425
3.281486,3.298625,2.706887,3.258095
3.281445,3.298474,2.705275,3.252454
3.281531,3.298565,2.709304,3.250843
3.281601,3.298570,2.714139,3.254872
3.281758,3.298560,2.715751,3.252454
3.281591,3.298459,2.709304,3.248425
3.281692,3.298520,2.710110,3.252454
3.281662,3.298590,2.711722,3.248425
3.281717,3.298530,2.714945,3.256484
3.281561,3.298525,2.707692,3.250843
3.281622,3.298630,2.711722,3.252454
3.281652,3.298610,2.714139,3.255678
3.281803,3.298520,2.705275,3.248425
3.281531,3.298520,2.709304,3.250037
3.281853,3.298580,2.714945,3.252454
3.281692,3.298696,2.715751,3.256484
3.281677,3.298590,2.714945,3.248425
3.281697,3.298666,2.714945,3.252454
3.281758,3.298590,2.717363,3.253260
3.281818,3.298711,2.718168,3.257289
3.281627,3.298489,2.711722,3.250037
3.281682,3.298550,2.714139,3.252454
3.281778,3.298585,2.715751,3.253260
3.281843,3.298640,2.719780,3.258901
3.281586,3.298499,2.712528,3.248425
3.281813,3.298696,2.714945,3.254066
3.281732,3.298590,2.714139,3.250843
3.281662,3.298509,2.723809,3.248425
3.281611,3.298530,2.714139,3.250843
3.281637,3.298610,2.716557,3.251648
3.281773,3.298701,2.715751,3.254066
3.281667,3.298555,2.707692,3.253260
3.281662,3.298580,2.712528,3.251648
3.281788,3.298620,2.715751,3.252454
3.281778,3.298676,2.715751,3.257289
3.281606,3.298409,2.708498,3.250037
3.281627,3.298479,2.712528,3.255678
3.281687,3.298560,2.714139,3.250843
3.281697,3.298580,2.714139,3.255678
3.281491,3.298459,2.707692,3.248425
3.281556,3.298550,2.710916,3.253260
3.281516,3.298565,2.709304,3.250843
3.281511,3.298419,2.705275,3.243590
3.281324,3.298399,2.700439,3.248425
3.281420,3.298489,2.714139,3.249231
3.281415,3.298530,2.706887,3.250843
3.281254,3.298424,2.696410,3.248425
3.281345,3.298444,2.702051,3.248425
3.281380,3.298520,2.705275,3.256484
3.281360,3.298580,2.699634,3.253260
3.281314,3.298404,2.698828,3.249231
3.281259,3.298444,2.702857,3.252454
3.281319,3.298494,2.705275,3.250843
3.281405,3.298434,2.705275,3.256484
3.281209,3.298384,2.702051,3.247619
3.281345,3.298489,2.708498,3.248425
3.281339,3.298489,2.701245,3.250037
3.281481,3.298323,2.709304,3.247619
3.281214,3.298414,2.694798,3.248425
3.281249,3.298459,2.698022,3.250843
3.281360,3.298474,2.704469,3.248425
3.281370,3.298414,2.702857,3.248425
3.281239,3.298409,2.701245,3.246813
3.281289,3.298479,2.705275,3.248425
3.281319,3.298545,2.701245,3.252454
3.281188,3.298419,2.704469,3.247619
3.281214,3.298469,2.698022,3.250843
3.281244,3.298434,2.695604,3.247619
3.281329,3.298474,2.702857,3.256484
3.281183,3.298363,2.694798,3.247619
3.281284,3.298419,2.698828,3.248425
3.281143,3.298429,2.696410,3.248425
3.281324,3.298479,2.702051,3.249231
3.281073,3.298379,2.694798,3.247619
3.281209,3.298419,2.698022,3.252454
3.281128,3.298434,2.698022,3.248425
3.281118,3.298384,2.698022,3.248425
3.281083,3.298394,2.693993,3.247619
3.281133,3.298444,2.693993,3.249231
3.281138,3.298565,2.695604,3.252454
3.281088,3.298384,2.689963,3.248425
3.281073,3.298439,2.692381,3.247619
3.281118,3.298409,2.698022,3.248425
3.281224,3.298399,2.694798,3.248425
3.281052,3.298338,2.693993,3.244395
3.281108,3.298419,2.693993,3.248425
3.281073,3.298399,2.693993,3.248425
3.281123,3.298379,2.695604,3.251648
3.280977,3.298343,2.692381,3.242784
3.281057,3.298429,2.692381,3.246813
3.281047,3.298389,2.693993,3.247619
3.280937,3.298343,2.688352,3.241978
3.280937,3.298368,2.688352,3.246813
3.280896,3.298379,2.693993,3.248425
3.280911,3.298429,2.689963,3.246813
3.280816,3.298353,2.690769,3.247619
3.280801,3.298389,2.684322,3.246007
3.280881,3.298373,2.691575,3.243590
3.281002,3.298414,2.689157,3.248425
3.280780,3.298263,2.681905,3.243590
3.280735,3.298379,2.686740,3.246007
3.280836,3.298363,2.683517,3.248425
3.280866,3.298323,2.689963,3.246007
3.280715,3.298283,2.683517,3.241978
3.280881,3.298308,2.685128,3.246813
3.280806,3.298363,2.690769,3.247619
3.280871,3.298348,2.683517,3.248425
3.280705,3.298313,2.681099,3.246813
3.280987,3.298368,2.681099,3.246007
3.280841,3.298444,2.685934,3.248425
3.280811,3.298323,2.681099,3.246007
3.280670,3.298338,2.681905,3.243590
3.280765,3.298363,2.681099,3.247619
3.280796,3.298404,2.685128,3.248425
3.280700,3.298227,2.681905,3.241172
3.280675,3.298368,2.681099,3.247619
3.280735,3.298363,2.685128,3.246813
3.280801,3.298318,2.681905,3.249231
3.280654,3.298222,2.676264,3.242784
3.280690,3.298379,2.685128,3.247619
3.280660,3.298343,2.680293,3.246007
3.280725,3.298323,2.691575,3.248425
3.280599,3.298283,2.677070,3.240366
3.280665,3.298303,2.678681,3.246813
3.280624,3.298368,2.677070,3.244395
3.280292,3.298258,2.675458,3.245201
3.280524,3.298258,2.673846,3.239560
3.280524,3.298283,2.673846,3.242784
3.280594,3.298343,2.677070,3.242784
3.280539,3.298237,2.675458,3.242784
3.280508,3.298338,2.676264,3.239560
3.280554,3.298303,2.675458,3.244395
3.280589,3.298358,2.680293,3.244395
3.280413,3.298157,2.668205,3.235531
3.280498,3.298227,2.676264,3.246007
3.280554,3.298313,2.670623,3.244395
3.280539,3.298127,2.672235,3.237143
3.280282,3.298197,2.668205,3.237949
3.280508,3.298212,2.670623,3.241172
3.280322,3.298263,2.670623,3.244395
3.280292,3.298177,2.668205,3.238755
3.280267,3.298202,2.668205,3.240366
3.280342,3.298222,2.668205,3.242784
3.280312,3.298338,2.668205,3.245201
3.280302,3.298162,2.668205,3.239560
3.280277,3.298237,2.669011,3.243590
3.280312,3.298268,2.668205,3.244395
3.280524,3.298298,2.676264,3.246007
3.280307,3.298122,2.670623,3.237949
3.280408,3.298323,2.670623,3.241978
3.280312,3.298227,2.670623,3.241172
3.280428,3.298192,2.675458,3.248425
3.280307,3.298172,2.669011,3.238755
3.280428,3.298338,2.675458,3.245201
3.280383,3.298202,2.670623,3.242784
3.280292,3.298187,2.668205,3.235531
3.280272,3.298152,2.669817,3.240366
3.280398,3.298217,2.673040,3.240366
3.280277,3.298313,2.668205,3.247619
3.280236,3.298122,2.666593,3.240366
3.280226,3.298268,2.667399,3.237949
3.280272,3.298187,2.668205,3.241172
3.280302,3.298308,2.668205,3.247619
3.280181,3.298031,2.665787,3.236337
3.280236,3.298263,2.664176,3.235531
3.280247,3.298172,2.668205,3.239560
3.280247,3.298232,2.669011,3.243590
3.280171,3.298096,2.664982,3.238755
3.280252,3.298187,2.668205,3.236337
3.280257,3.298197,2.667399,3.241978
3.280307,3.298096,2.663370,3.234725
3.280151,3.298167,2.663370,3.238755
3.280221,3.298212,2.665787,3.240366
3.280241,3.298323,2.668205,3.240366
3.280176,3.298117,2.660146,3.240366
3.280156,3.298162,2.666593,3.239560
3.280252,3.298137,2.668205,3.242784
3.280272,3.298283,2.667399,3.243590
3.280191,3.298071,2.664982,3.235531
3.280196,3.298268,2.665787,3.246813
3.280211,3.298177,2.663370,3.238755
3.280252,3.298212,2.668205,3.248425
3.280005,3.298036,2.660952,3.236337
3.280196,3.298192,2.663370,3.235531
3.280186,3.298182,2.667399,3.241172
3.280176,3.298066,2.668205,3.237949
3.280010,3.298132,2.662564,3.238755
3.280055,3.298197,2.664982,3.246007
3.280171,3.298268,2.662564,3.237949
3.280216,3.298076,2.668205,3.239560
3.280065,3.298096,2.660952,3.237949
3.280151,3.298122,2.664176,3.237949
3.280141,3.298207,2.664982,3.241172
3.280010,3.298056,2.663370,3.237143
3.280045,3.298076,2.660146,3.237949
3.280075,3.298142,2.663370,3.243590
3.280151,3.298137,2.665787,3.244395
3.279914,3.298016,2.655311,3.235531
3.280116,3.298102,2.661758,3.239560
3.280121,3.298132,2.659341,3.239560
3.280075,3.298212,2.660952,3.244395
3.279904,3.298061,2.656117,3.235531
3.280126,3.298117,2.662564,3.244395
3.280055,3.298137,2.657729,3.237949
3.280100,3.298127,2.661758,3.241172
3.280065,3.298112,2.664982,3.241172
3.280201,3.298137,2.668205,3.242784
3.280241,3.298298,2.668205,3.245201
3.280241,3.298162,2.664982,3.237949
3.280267,3.298333,2.668205,3.242784
3.280383,3.298197,2.670623,3.243590
3.280599,3.298192,2.679487,3.241172
3.280468,3.298202,2.676264,3.239560
3.280665,3.298353,2.681099,3.247619
3.280680,3.298353,2.682711,3.246813
3.280952,3.298237,2.684322,3.246007
3.280790,3.298363,2.685934,3.247619
3.280977,3.298449,2.696410,3.249231
3.281062,3.298414,2.693993,3.248425
3.281098,3.298384,2.695604,3.248425
3.281108,3.298404,2.692381,3.248425
3.281249,3.298464,2.693993,3.251648
3.281234,3.298550,2.698022,3.251648
3.281188,3.298404,2.701245,3.248425
3.281229,3.298504,2.697216,3.250037
3.281345,3.298474,2.702857,3.248425
3.281450,3.298645,2.704469,3.255678
3.281299,3.298384,2.698022,3.247619
3.281365,3.298484,2.701245,3.250843
3.281410,3.298479,2.702051,3.248425
3.281380,3.298348,2.704469,3.254066
3.281249,3.298424,2.694798,3.246813
3.281319,3.298484,2.704469,3.250037
3.281299,3.298489,2.704469,3.248425
3.281460,3.298409,2.705275,3.248425
3.281269,3.298414,2.698828,3.248425
3.281410,3.298459,2.702857,3.250843
3.281345,3.298610,2.701245,3.253260
3.281309,3.298399,2.693993,3.248425
3.281289,3.298545,2.702051,3.249231
3.281360,3.298449,2.703663,3.249231
3.281440,3.298540,2.706081,3.252454
3.281309,3.298373,2.704469,3.248425
3.281365,3.298419,2.701245,3.254066
3.281405,3.298474,2.701245,3.248425
3.281521,3.298389,2.703663,3.249231
3.281324,3.298399,2.703663,3.248425
3.281360,3.298469,2.705275,3.252454
3.281435,3.298494,2.705275,3.248425
3.281445,3.298389,2.698022,3.247619
3.281279,3.298434,2.702051,3.248425
3.281339,3.298479,2.708498,3.250037
3.281420,3.298550,2.703663,3.249231
3.281234,3.298454,2.694798,3.248425
3.281274,3.298474,2.699634,3.248425
3.281345,3.298444,2.706081,3.251648
3.281370,3.298494,2.702857,3.248425
3.281264,3.298379,2.702857,3.252454
3.281219,3.298489,2.698022,3.248425
3.281234,3.298404,2.698828,3.247619
3.281274,3.298454,2.704469,3.247619
3.281158,3.298368,2.702051,3.246813
3.281143,3.298389,2.698022,3.246007
3.281178,3.298399,2.701245,3.247619
3.281138,3.298368,2.701245,3.248425
3.281062,3.298373,2.693187,3.247619
3.280997,3.298399,2.694798,3.248425
3.281093,3.298439,2.694798,3.249231
3.281103,3.298399,2.695604,3.246007
3.281047,3.298379,2.693993,3.244395
3.281052,3.298404,2.697216,3.248425
3.281073,3.298419,2.693993,3.249231
3.281002,3.298363,2.693993,3.246007
3.281047,3.298444,2.693993,3.247619
3.281068,3.298419,2.693993,3.249231
3.281168,3.298479,2.696410,3.247619
3.281027,3.298328,2.693993,3.241172
3.281057,3.298409,2.693993,3.254066
3.281078,3.298424,2.693993,3.248425
3.281118,3.298439,2.698828,3.250037
3.281012,3.298384,2.690769,3.244395
3.281138,3.298343,2.696410,3.247619
3.281083,3.298419,2.693993,3.248425
3.281042,3.298343,2.693993,3.248425
3.281012,3.298379,2.693187,3.247619
3.281037,3.298409,2.693993,3.248425
3.281093,3.298494,2.693187,3.248425
3.281052,3.298308,2.693993,3.246007
3.281067,3.298384,2.693187,3.248425
3.281088,3.298424,2.693993,3.248425
3.281108,3.298444,2.697216,3.247619
3.281037,3.298268,2.693187,3.241978
3.281083,3.298318,2.693187,3.248425
3.281027,3.298384,2.694798,3.246007
3.281073,3.298484,2.694798,3.248425
3.280891,3.298333,2.689963,3.244395
3.281032,3.298303,2.689157,3.246007
3.281012,3.298394,2.691575,3.246813
3.281007,3.298353,2.698022,3.246007
3.280906,3.298308,2.691575,3.245201
3.281073,3.298389,2.688352,3.246813
3.280942,3.298434,2.688352,3.249231
3.280916,3.298328,2.693993,3.243590
3.280876,3.298353,2.689963,3.247619
3.280972,3.298384,2.689157,3.246813
3.281042,3.298394,2.693187,3.244395
3.280836,3.298207,2.688352,3.242784
3.280942,3.298358,2.685934,3.243590
3.280796,3.298373,2.690769,3.244395
3.280851,3.298444,2.690769,3.248425
3.280695,3.298303,2.681099,3.243590
3.280921,3.298404,2.688352,3.244395
3.280886,3.298338,2.686740,3.244395
3.280957,3.298268,2.675458,3.242784
3.280720,3.298293,2.681905,3.243590
3.280790,3.298363,2.681905,3.247619
3.280811,3.298434,2.685128,3.247619
3.280730,3.298348,2.682711,3.244395
3.280740,3.298353,2.684322,3.243590
3.280770,3.298338,2.682711,3.248425
3.280871,3.298368,2.683517,3.248425
3.280720,3.298268,2.681099,3.239560
3.280690,3.298323,2.681099,3.242784
3.280760,3.298358,2.685128,3.246007
3.280826,3.298273,2.683517,3.251648
3.280619,3.298293,2.686740,3.239560
3.280816,3.298373,2.685934,3.246813
3.280755,3.298343,2.681099,3.246007
3.280841,3.298283,2.688352,3.243590
3.280644,3.298298,2.681099,3.241172
3.280785,3.298333,2.691575,3.246813
3.280735,3.298399,2.685128,3.247619
3.280589,3.298303,2.683517,3.244395
3.280629,3.298273,2.681099,3.246813
3.280695,3.298328,2.681099,3.246007
3.280720,3.298414,2.681905,3.247619
3.280639,3.298207,2.680293,3.239560
3.280649,3.298348,2.681099,3.243590
3.280614,3.298328,2.680293,3.244395
3.280675,3.298303,2.681099,3.247619
3.280564,3.298177,2.676264,3.239560
3.280685,3.298313,2.676264,3.248425
3.280629,3.298278,2.681905,3.246813
3.280594,3.298278,2.685128,3.248425
3.280534,3.298253,2.675458,3.239560
3.280594,3.298298,2.686740,3.243590
3.280579,3.298328,2.678681,3.246007
3.280554,3.298237,2.670623,3.240366
3.280554,3.298253,2.677070,3.241172
3.280549,3.298298,2.681099,3.244395
3.280649,3.298363,2.680293,3.245201
3.280599,3.298162,2.676264,3.244395
3.280498,3.298303,2.673846,3.246813
3.280529,3.298293,2.676264,3.243590
3.280655,3.298303,2.681099,3.243590
3.280372,3.298167,2.675458,3.239560
3.280609,3.298248,2.678681,3.246007
3.280453,3.298303,2.673040,3.240366
3.280534,3.298172,2.673846,3.242784
3.280377,3.298192,2.670623,3.240366
3.280463,3.298293,2.677070,3.246007
3.280539,3.298268,2.673846,3.241978
3.280639,3.298227,2.684322,3.239560
3.280468,3.298243,2.673040,3.241172
3.280478,3.298293,2.671429,3.239560
3.280423,3.298363,2.677070,3.248425
3.280332,3.298192,2.670623,3.245201
3.280342,3.298303,2.673040,3.244395
3.280438,3.298232,2.670623,3.243590
3.280564,3.298237,2.677876,3.241978
3.280327,3.298112,2.670623,3.238755
3.280458,3.298227,2.670623,3.241172
3.280418,3.298253,2.672235,3.242784
3.280383,3.298192,2.675458,3.246007
3.280262,3.298177,2.672235,3.239560
3.280468,3.298217,2.668205,3.246813
3.280342,3.298222,2.670623,3.241172
3.280524,3.298237,2.668205,3.246007
3.280292,3.298167,2.668205,3.238755
3.280277,3.298268,2.669011,3.240366
3.280332,3.298318,2.673040,3.246813
3.280252,3.298142,2.668205,3.236337
3.280272,3.298243,2.668205,3.241978
3.280312,3.298202,2.669011,3.241172
3.280408,3.298232,2.669011,3.244395
3.280252,3.298086,2.668205,3.237143
3.280312,3.298182,2.668205,3.240366
3.280322,3.298197,2.667399,3.239560
3.280317,3.298006,2.669011,3.242784
3.280206,3.298091,2.662564,3.237949
3.280257,3.298212,2.668205,3.239560
3.280287,3.298217,2.668205,3.241172
3.280327,3.298152,2.671429,3.236337
3.280196,3.298132,2.668205,3.239560
3.280196,3.298197,2.668205,3.239560
3.280267,3.298333,2.668205,3.241978
3.280216,3.298172,2.663370,3.237949
3.280206,3.298167,2.665787,3.236337
3.280247,3.298237,2.668205,3.239560
3.280302,3.298268,2.667399,3.242784
3.280201,3.298081,2.666593,3.237949
3.280191,3.298273,2.666593,3.245201
3.280226,3.298167,2.665787,3.238755
3.280252,3.298293,2.669011,3.235531
3.280171,3.298102,2.667399,3.236337
3.280236,3.298232,2.668205,3.237143
3.280211,3.298202,2.666593,3.239560
3.280201,3.298132,2.666593,3.242784
3.280095,3.298056,2.665787,3.238755
3.280191,3.298157,2.664176,3.239560
3.280186,3.298243,2.665787,3.242784
3.280156,3.298112,2.660952,3.236337
3.280111,3.298142,2.664176,3.236337
3.280121,3.298167,2.665787,3.236337
3.280166,3.298253,2.664176,3.244395
3.280106,3.298036,2.663370,3.240366
3.280085,3.298212,2.662564,3.238755
3.280141,3.298142,2.665787,3.236337
3.280257,3.298243,2.668205,3.245201
3.280100,3.298046,2.660952,3.235531
3.280171,3.298197,2.666593,3.237949
3.280151,3.298157,2.664176,3.237143
3.280201,3.298177,2.664176,3.235531
3.279954,3.298086,2.658535,3.237143
3.280176,3.298137,2.665787,3.246007
3.280161,3.298197,2.664176,3.239560
3.280252,3.298152,2.664176,3.237949
3.280216,3.298147,2.667399,3.239560
3.280267,3.298278,2.669817,3.243590
3.280307,3.298303,2.668205,3.246813
3.280337,3.298197,2.668205,3.245201
3.280428,3.298298,2.673040,3.244395
3.280463,3.298288,2.673846,3.243590
3.280670,3.298333,2.681099,3.247619
3.280599,3.298232,2.678681,3.239560
3.280796,3.298379,2.681905,3.248425
3.280846,3.298394,2.691575,3.247619
3.281012,3.298308,2.693993,3.248425
3.280962,3.298373,2.691575,3.246813
3.281093,3.298449,2.693187,3.248425
3.281098,3.298449,2.698022,3.248425
3.281254,3.298399,2.693993,3.246007
3.281153,3.298414,2.694798,3.248425
3.281178,3.298459,2.694798,3.250843
3.281345,3.298580,2.702051,3.257289
3.281279,3.298479,2.703663,3.248425
3.281339,3.298560,2.704469,3.250037
3.281395,3.298489,2.706081,3.250037
3.281501,3.298504,2.704469,3.258095
3.281334,3.298399,2.703663,3.246813
3.281395,3.298469,2.705275,3.250843
3.281314,3.298515,2.709304,3.250037
3.281516,3.298620,2.707692,3.248425
3.281284,3.298424,2.702857,3.248425
3.281415,3.298580,2.706887,3.248425
3.281445,3.298515,2.704469,3.250843
3.281521,3.298424,2.707692,3.246007
3.281319,3.298454,2.703663,3.248425
3.281365,3.298509,2.707692,3.250843
3.281460,3.298645,2.708498,3.252454
3.281430,3.298444,2.704469,3.248425
3.281405,3.298545,2.704469,3.250843
3.281425,3.298540,2.706081,3.249231
3.281551,3.298565,2.709304,3.250843
3.281420,3.298404,2.709304,3.248425
3.281440,3.298525,2.706081,3.250843
3.281511,3.298540,2.706081,3.250037
3.281531,3.298645,2.711722,3.250843
3.281339,3.298409,2.702051,3.248425
3.281541,3.298444,2.703663,3.250037
3.281501,3.298504,2.705275,3.250037
3.281455,3.298464,2.709304,3.245201
3.281345,3.298464,2.703663,3.248425
3.281385,3.298525,2.701245,3.248425
3.281415,3.298610,2.707692,3.250843
3.281470,3.298419,2.705275,3.248425
3.281390,3.298469,2.705275,3.250037
3.281395,3.298525,2.702857,3.248425
3.281455,3.298585,2.704469,3.251648
3.281350,3.298394,2.702857,3.247619
3.281304,3.298414,2.697216,3.252454
3.281279,3.298454,2.702051,3.250037
3.281345,3.298429,2.704469,3.248425
3.281209,3.298368,2.694798,3.247619
3.281294,3.298459,2.704469,3.247619
3.281264,3.298419,2.696410,3.248425
3.281355,3.298368,2.702051,3.247619
3.281062,3.298373,2.693187,3.246813
3.281133,3.298404,2.697216,3.248425
3.281158,3.298429,2.696410,3.248425
3.281068,3.298368,2.693187,3.246813
3.281078,3.298404,2.693993,3.248425
3.281123,3.298389,2.693993,3.246813
3.281123,3.298469,2.693993,3.248425
3.281078,3.298313,2.693993,3.242784
3.281057,3.298449,2.693993,3.249231
3.281093,3.298389,2.693993,3.248425
3.281219,3.298504,2.699634,3.248425
3.281103,3.298328,2.691575,3.246007
3.281158,3.298424,2.693993,3.247619
3.281123,3.298404,2.693993,3.246813
3.281178,3.298399,2.693993,3.241172
3.280977,3.298363,2.689963,3.245201
3.281123,3.298363,2.693993,3.250037
3.281062,3.298414,2.694798,3.248425
3.281183,3.298379,2.696410,3.247619
3.281012,3.298368,2.693993,3.247619
3.281083,3.298419,2.698022,3.248425
3.281057,3.298439,2.693993,3.250843
3.281052,3.298384,2.692381,3.248425
3.281047,3.298399,2.693993,3.248425
3.281068,3.298394,2.692381,3.246007
3.281103,3.298343,2.696410,3.247619
3.281047,3.298293,2.690769,3.242784
3.281078,3.298439,2.693187,3.247619
3.281022,3.298379,2.694798,3.248425
3.281128,3.298394,2.695604,3.248425
3.280947,3.298323,2.691575,3.245201
3.281093,3.298358,2.693187,3.251648
3.281012,3.298384,2.693993,3.248425
3.280992,3.298343,2.689157,3.243590
3.280881,3.298333,2.683517,3.244395
3.280921,3.298384,2.693993,3.248425
3.280952,3.298464,2.688352,3.250037
3.280916,3.298343,2.685128,3.246007
3.280851,3.298368,2.685934,3.246007
3.280952,3.298384,2.690769,3.247619
3.281012,3.298419,2.690769,3.248425
3.280791,3.298268,2.683517,3.242784
3.280846,3.298384,2.684322,3.242784
3.280851,3.298389,2.685128,3.247619
3.280896,3.298353,2.689963,3.244395
3.280715,3.298273,2.683517,3.243590
3.280806,3.298394,2.688352,3.242784
3.280806,3.298353,2.685934,3.246813
3.280947,3.298298,2.678681,3.241172
3.280660,3.298273,2.680293,3.243590
3.280735,3.298358,2.682711,3.246007
3.280735,3.298389,2.681905,3.246813
3.280665,3.298298,2.680293,3.242784
3.280639,3.298323,2.680293,3.243590
3.280655,3.298273,2.676264,3.243590
3.280760,3.298363,2.681099,3.246813
3.280609,3.298202,2.680293,3.247619
3.280644,3.298308,2.678681,3.241172
3.280655,3.298308,2.681099,3.243590
3.280806,3.298353,2.683517,3.246007
3.280524,3.298248,2.679487,3.241172
3.280655,3.298343,2.680293,3.246813
3.280619,3.298318,2.680293,3.244395
3.280675,3.298137,2.683517,3.237143
3.280529,3.298263,2.679487,3.244395
3.280675,3.298288,2.680293,3.246007
3.280584,3.298358,2.678681,3.243590
3.280362,3.298222,2.675458,3.243590
3.280544,3.298288,2.673040,3.243590
3.280574,3.298273,2.673846,3.244395
3.280624,3.298363,2.681099,3.248425
3.280513,3.298192,2.677876,3.243590
3.280513,3.298328,2.673040,3.245201
3.280534,3.298268,2.676264,3.243590
3.280624,3.298303,2.679487,3.247619
3.280418,3.298167,2.674652,3.238755
3.280589,3.298237,2.678681,3.248425
3.280519,3.298308,2.679487,3.242784
3.280675,3.298293,2.678681,3.235531
3.280352,3.298237,2.669011,3.239560
3.280403,3.298268,2.680293,3.242784
3.280463,3.298308,2.675458,3.241172
3.280252,3.298253,2.677070,3.240366
3.280413,3.298222,2.670623,3.237949
3.280448,3.298278,2.675458,3.244395
3.280508,3.298379,2.673846,3.246813
3.280413,3.298263,2.676264,3.238755
3.280398,3.298303,2.675458,3.241978
3.280478,3.298288,2.673846,3.243590
3.280569,3.298313,2.679487,3.240366
3.280342,3.298142,2.673846,3.237949
3.280423,3.298227,2.672235,3.250037
3.280327,3.298248,2.669817,3.242784
3.280423,3.298117,2.675458,3.235531
3.280282,3.298192,2.667399,3.237143
3.280297,3.298258,2.673040,3.245201
3.280347,3.298227,2.668205,3.239560
3.280403,3.298142,2.679487,3.239560
3.280262,3.298187,2.669817,3.240366
3.280372,3.298232,2.667399,3.241172
3.280322,3.298308,2.670623,3.246007
3.280277,3.298096,2.673846,3.241172
3.280277,3.298268,2.668205,3.242784
3.280272,3.298182,2.670623,3.242784
3.280433,3.298258,2.670623,3.243590
3.280262,3.298091,2.667399,3.235531
3.280292,3.298248,2.670623,3.239560
3.280312,3.298172,2.672235,3.242784
3.280297,3.298268,2.672235,3.236337
3.280231,3.298112,2.668205,3.239560
3.280267,3.298258,2.667399,3.246813
3.280277,3.298207,2.668205,3.240366
3.280257,3.298122,2.670623,3.239560
3.280226,3.298172,2.668205,3.240366
3.280226,3.298248,2.665787,3.240366
3.280236,3.298313,2.668205,3.244395
3.280216,3.298142,2.668205,3.237949
3.280201,3.298217,2.665787,3.241172
3.280257,3.298243,2.665787,3.241172
3.280297,3.298227,2.668205,3.242784
3.280176,3.298066,2.664982,3.236337
3.280252,3.298243,2.667399,3.242784
3.280236,3.298222,2.660146,3.240366
3.280216,3.298212,2.668205,3.250843
3.280055,3.298086,2.661758,3.235531
3.280216,3.298303,2.668205,3.239560
3.280201,3.298177,2.668205,3.241172
3.280292,3.298071,2.669011,3.235531
3.280055,3.298096,2.660952,3.235531
3.280196,3.298187,2.668205,3.240366
3.280216,3.298273,2.667399,3.242784
3.280095,3.298147,2.663370,3.236337
3.280131,3.298147,2.663370,3.238755
3.280166,3.298142,2.667399,3.239560
3.280186,3.298243,2.666593,3.242784
3.280055,3.298016,2.666593,3.235531
3.280075,3.298182,2.661758,3.242784
3.280126,3.298207,2.662564,3.240366
3.280242,3.298182,2.668205,3.237143
3.279980,3.298066,2.657729,3.236337
3.280166,3.298212,2.664982,3.241978
3.280186,3.298157,2.665787,3.239560
3.280060,3.298096,2.657729,3.236337
3.279964,3.298076,2.657729,3.236337
3.280156,3.298132,2.660146,3.237143
3.280080,3.298197,2.660952,3.237949
3.279818,3.298096,2.663370,3.235531
3.279929,3.298076,2.657729,3.238755
3.280025,3.298122,2.662564,3.237143
3.280015,3.298258,2.656923,3.237949
3.279975,3.298071,2.660146,3.238755
3.279985,3.298167,2.660146,3.237949
3.280065,3.298122,2.659341,3.240366
3.280146,3.298182,2.665787,3.244395
3.280005,3.298001,2.657729,3.235531
3.280045,3.298152,2.662564,3.238755
3.279964,3.298152,2.660146,3.239560
3.280035,3.298117,2.660952,3.237949
3.279904,3.298086,2.659341,3.235531
3.280141,3.298217,2.663370,3.236337
3.280121,3.298202,2.662564,3.241172
3.280166,3.298096,2.673040,3.237143
3.280146,3.298182,2.660146,3.240366
3.280146,3.298202,2.669011,3.239560
3.280297,3.298358,2.670623,3.246813
3.280332,3.298162,2.670623,3.243590
3.280367,3.298278,2.672235,3.247619
3.280589,3.298318,2.677876,3.241172
3.280710,3.298273,2.684322,3.246007
3.280710,3.298243,2.681099,3.241172
3.280942,3.298353,2.681905,3.248425
3.281032,3.298404,2.690769,3.248425
3.281118,3.298323,2.693993,3.250843
3.280982,3.298394,2.693993,3.248425
3.281168,3.298469,2.693993,3.248425
3.281168,3.298449,2.697216,3.250037
3.281274,3.298419,2.701245,3.247619
3.281128,3.298454,2.701245,3.248425
3.281214,3.298474,2.698828,3.250037
3.281334,3.298610,2.703663,3.256484
3.281345,3.298504,2.698828,3.248425
3.281329,3.298560,2.701245,3.249231
3.281375,3.298595,2.702857,3.254872
3.281571,3.298555,2.710916,3.257289
3.281375,3.298439,2.705275,3.247619
3.281465,3.298575,2.704469,3.256484
3.281440,3.298540,2.706887,3.252454
3.281571,3.298656,2.710916,3.258901
3.281339,3.298404,2.702051,3.248425
3.281486,3.298525,2.709304,3.250843
3.281450,3.298550,2.706887,3.250843
3.281491,3.298489,2.701245,3.251648
3.281390,3.298494,2.701245,3.252454
3.281460,3.298520,2.702051,3.251648
3.281390,3.298645,2.702857,3.252454
3.281465,3.298424,2.708498,3.250037
3.281350,3.298520,2.702857,3.250037
3.281415,3.298570,2.702857,3.249231
3.281526,3.298565,2.706081,3.252454
3.281355,3.298384,2.702051,3.247619
3.281420,3.298590,2.704469,3.254066
3.281481,3.298525,2.706081,3.250843
3.281566,3.298620,2.709304,3.252454
3.281304,3.298419,2.707692,3.249231
3.281491,3.298585,2.707692,3.253260
3.281475,3.298474,2.706081,3.250037
3.281622,3.298504,2.705275,3.247619
3.281380,3.298515,2.704469,3.250037
3.281526,3.298499,2.714139,3.250843
3.281481,3.298651,2.707692,3.254066
3.281405,3.298499,2.702051,3.249231
3.281491,3.298515,2.703663,3.251648
3.281531,3.298590,2.707692,3.249231
3.281445,3.298575,2.707692,3.252454
3.281360,3.298394,2.702051,3.248425
3.281339,3.298545,2.702857,3.248425
3.281284,3.298479,2.698022,3.250843
3.281385,3.298620,2.703663,3.253260
3.281093,3.298384,2.703663,3.247619
3.281289,3.298494,2.698828,3.251648
3.281193,3.298469,2.698022,3.248425
3.281113,3.298328,2.692381,3.246007
3.281073,3.298404,2.691575,3.247619
3.281083,3.298419,2.702857,3.255678
3.281128,3.298424,2.696410,3.248425
3.281047,3.298389,2.690769,3.247619
3.281042,3.298389,2.693993,3.248425
3.281108,3.298404,2.693993,3.246813
3.281093,3.298444,2.694798,3.249231
3.281088,3.298348,2.695604,3.245201
3.281073,3.298419,2.693993,3.250843
3.281103,3.298424,2.693993,3.250843
3.281254,3.298444,2.698828,3.248425
3.281052,3.298373,2.701245,3.246007
3.281209,3.298484,2.695604,3.248425
3.281138,3.298439,2.698828,3.250037
3.281163,3.298394,2.693993,3.249231
3.281057,3.298373,2.694798,3.248425
3.281138,3.298399,2.693993,3.250843
3.281123,3.298434,2.693993,3.249231
3.281103,3.298363,2.693993,3.248425
3.281078,3.298379,2.693187,3.246813
3.281183,3.298404,2.693993,3.248425
3.281103,3.298504,2.694798,3.250843
3.281062,3.298328,2.698022,3.248425
3.281057,3.298404,2.693187,3.248425
3.281088,3.298399,2.694798,3.250843
3.281188,3.298499,2.698828,3.246813
3.281037,3.298343,2.694798,3.246813
3.281123,3.298444,2.693187,3.249231
3.281138,3.298439,2.693993,3.250037
3.281103,3.298444,2.693993,3.254872
3.280982,3.298373,2.691575,3.246007
3.281052,3.298504,2.693993,3.253260
3.281068,3.298404,2.693993,3.248425
3.281088,3.298384,2.702857,3.248425
3.281007,3.298379,2.692381,3.247619
3.280957,3.298389,2.688352,3.246813
3.281037,3.298454,2.691575,3.250843
3.281002,3.298353,2.685128,3.245201
3.280962,3.298379,2.688352,3.246007
3.280957,3.298368,2.693187,3.247619
3.281027,3.298379,2.689963,3.244395
3.280836,3.298303,2.688352,3.239560
3.280911,3.298429,2.688352,3.246813
3.280967,3.298399,2.693993,3.246813
3.280957,3.298474,2.692381,3.250037
3.280765,3.298318,2.681099,3.243590
3.280952,3.298439,2.689157,3.247619
3.280916,3.298384,2.688352,3.246813
3.281037,3.298298,2.682711,3.237143
3.280695,3.298318,2.681099,3.243590
3.280811,3.298379,2.686740,3.246007
3.280775,3.298424,2.689157,3.248425
3.280730,3.298308,2.680293,3.242784
3.280730,3.298318,2.681905,3.241172
3.280735,3.298318,2.681905,3.246813
3.280851,3.298399,2.681099,3.250037
3.280649,3.298263,2.681905,3.239560
3.280695,3.298328,2.683517,3.248425
3.280725,3.298343,2.680293,3.247619
3.280705,3.298389,2.683517,3.248425
3.280579,3.298238,2.685128,3.239560
3.280660,3.298278,2.681099,3.240366
3.280665,3.298333,2.681099,3.246813
3.280725,3.298197,2.681099,3.236337
3.280594,3.298268,2.677070,3.240366
3.280680,3.298328,2.685934,3.236337
3.280655,3.298384,2.681905,3.241172
3.280579,3.298263,2.689157,3.243590
3.280624,3.298308,2.678681,3.243590
3.280695,3.298328,2.684322,3.246007
3.280665,3.298379,2.680293,3.248425
3.280624,3.298248,2.677070,3.237143
3.280624,3.298389,2.677070,3.244395
3.280614,3.298343,2.681099,3.248425
3.280695,3.298394,2.685128,3.243590
3.280554,3.298157,2.681099,3.243590
3.280624,3.298399,2.678681,3.248425
3.280579,3.298308,2.676264,3.246007
3.280574,3.298061,2.681099,3.236337
3.280453,3.298243,2.669817,3.242784
3.280579,3.298263,2.674652,3.243590
3.280559,3.298308,2.678681,3.246813
3.280579,3.298258,2.679487,3.241172
3.280458,3.298263,2.675458,3.242784
3.280589,3.298268,2.680293,3.244395
3.280529,3.298368,2.676264,3.246813
3.280448,3.298152,2.671429,3.239560
3.280483,3.298313,2.669011,3.246007
3.280468,3.298258,2.678681,3.240366
3.280634,3.298217,2.674652,3.241978
3.280352,3.298137,2.670623,3.239560
3.280448,3.298303,2.673846,3.246007
3.280448,3.298268,2.676264,3.245201
3.280463,3.298278,2.675458,3.242784
3.280322,3.298227,2.668205,3.238755
3.280473,3.298323,2.673040,3.238755
3.280438,3.298263,2.673846,3.242784
3.280372,3.298177,2.672235,3.242784
3.280267,3.298202,2.668205,3.240366
3.280448,3.298268,2.675458,3.245201
3.280372,3.298379,2.672235,3.246813
3.280307,3.298127,2.672235,3.240366
3.280413,3.298283,2.672235,3.246813
3.280473,3.298273,2.673040,3.246813
3.280554,3.298318,2.676264,3.242784
3.280372,3.298117,2.669011,3.239560
3.280403,3.298338,2.669011,3.237949
3.280403,3.298253,2.668205,3.241978
3.280423,3.298182,2.672235,3.248425
3.280282,3.298167,2.668205,3.236337
3.280292,3.298268,2.676264,3.246813
3.280347,3.298212,2.668205,3.243590
3.280413,3.298096,2.668205,3.237143
3.280236,3.298117,2.665787,3.242784
3.280377,3.298238,2.672235,3.241172
3.280297,3.298379,2.668205,3.244395
3.280176,3.298152,2.664982,3.239560
3.280247,3.298248,2.667399,3.241172
3.280297,3.298248,2.666593,3.236337
3.280357,3.298278,2.668205,3.246813
3.280211,3.298086,2.666593,3.235531
3.280272,3.298273,2.666593,3.241978
3.280267,3.298152,2.668205,3.241172
3.280317,3.298293,2.668205,3.246813
3.280176,3.298096,2.666593,3.237143
3.280171,3.298172,2.667399,3.240366
3.280247,3.298192,2.667399,3.242784
3.280146,3.298117,2.663370,3.241172
3.280121,3.298066,2.660146,3.237949
3.280181,3.298217,2.664982,3.241172
3.280206,3.298303,2.665787,3.242784
3.280267,3.298107,2.668205,3.236337
3.280126,3.298187,2.664176,3.238755
3.280206,3.298137,2.672235,3.240366
3.280247,3.298343,2.668205,3.241978
3.280216,3.298086,2.664176,3.241172
3.280141,3.298177,2.667399,3.235531
3.280216,3.298187,2.665787,3.237949
3.280277,3.298197,2.669011,3.241172
3.280090,3.298086,2.656923,3.235531
3.280156,3.298207,2.668205,3.241978
3.280166,3.298197,2.668205,3.240366
3.280176,3.298046,2.665787,3.235531
3.280005,3.298086,2.660952,3.235531
3.280226,3.298192,2.658535,3.235531
3.280116,3.298212,2.662564,3.242784
3.280055,3.298102,2.652894,3.237143
3.280020,3.298096,2.659341,3.237949
3.280126,3.298172,2.668205,3.238755
3.280090,3.298248,2.662564,3.239560
3.279949,3.298046,2.659341,3.237949
3.280015,3.298122,2.656923,3.240366
3.279990,3.298152,2.657729,3.236337
3.280080,3.298288,2.660952,3.241172
3.279894,3.298001,2.657729,3.235531
3.280090,3.298127,2.664176,3.237143
3.280030,3.298177,2.656923,3.237949
3.280045,3.298192,2.662564,3.240366
3.279914,3.298096,2.658535,3.235531
3.280146,3.298132,2.660146,3.236337
3.280045,3.298187,2.665787,3.242784
3.280161,3.298117,2.660952,3.235531
3.280106,3.298112,2.660952,3.241172
3.280181,3.298232,2.664176,3.241172
3.280247,3.298288,2.668205,3.241172
3.280257,3.298182,2.666593,3.239560
3.280327,3.298253,2.668205,3.242784
3.280433,3.298268,2.673040,3.243590
3.280639,3.298288,2.681099,3.244395
3.280529,3.298187,2.679487,3.239560
3.280675,3.298298,2.680293,3.246007
3.280760,3.298384,2.680293,3.248425
3.280841,3.298439,2.693993,3.250843
3.280775,3.298318,2.685128,3.245201
3.281078,3.298409,2.691575,3.246813
3.281093,3.298454,2.693993,3.248425
3.281002,3.298394,2.702857,3.246813
3.281068,3.298414,2.693993,3.248425
3.281183,3.298414,2.698022,3.248425
3.281188,3.298550,2.697216,3.254066
3.281143,3.298409,2.697216,3.247619
3.281128,3.298499,2.693993,3.248425
3.281269,3.298499,2.702857,3.250037
3.281345,3.298575,2.696410,3.249231
3.281118,3.298368,2.696410,3.247619
3.281264,3.298530,2.696410,3.247619
3.281203,3.298464,2.697216,3.248425
3.281229,3.298530,2.702857,3.246813
3.281163,3.298389,2.698022,3.247619
3.281198,3.298565,2.696410,3.249231
3.281229,3.298489,2.702051,3.248425
3.281078,3.298409,2.702857,3.247619
3.281108,3.298409,2.693993,3.248425
3.281123,3.298454,2.694798,3.248425
3.281198,3.298580,2.699634,3.248425
3.281123,3.298384,2.693993,3.248425
3.281088,3.298439,2.698022,3.249231
3.281173,3.298444,2.701245,3.248425
3.281319,3.298474,2.698828,3.248425
3.281123,3.298379,2.698022,3.244395
3.281138,3.298504,2.697216,3.247619
3.281183,3.298424,2.695604,3.248425
3.281254,3.298399,2.702051,3.254066
3.281088,3.298379,2.696410,3.247619
3.281244,3.298409,2.699634,3.248425
3.281264,3.298419,2.702051,3.248425
3.281193,3.298379,2.701245,3.248425
3.281083,3.298373,2.694798,3.246007
3.281259,3.298419,2.696410,3.248425
3.281163,3.298469,2.693993,3.248425
3.281173,3.298394,2.698022,3.247619
3.281088,3.298389,2.693993,3.248425
3.281143,3.298409,2.693993,3.248425
3.281133,3.298454,2.694798,3.250037
3.281062,3.298368,2.693993,3.246813
3.281073,3.298414,2.693993,3.248425
3.281022,3.298389,2.693187,3.248425
3.281078,3.298399,2.694798,3.248425
3.281027,3.298313,2.691575,3.244395
3.281042,3.298353,2.693993,3.243590
3.281017,3.298389,2.694798,3.246813
3.281133,3.298293,2.698828,3.239560
3.280876,3.298363,2.684322,3.246007
3.280916,3.298384,2.689963,3.248425
3.280987,3.298389,2.689963,3.248425
3.280826,3.298358,2.683517,3.247619
3.280891,3.298353,2.685934,3.246007
3.280982,3.298379,2.692381,3.244395
3.280942,3.298394,2.692381,3.248425
3.280932,3.298338,2.689963,3.237949
3.280937,3.298399,2.689157,3.248425
3.280957,3.298389,2.692381,3.243590
3.281088,3.298404,2.694798,3.250843
3.280876,3.298288,2.691575,3.244395
3.280997,3.298394,2.693993,3.243590
3.281017,3.298389,2.692381,3.247619
3.281002,3.298399,2.693187,3.252454
3.280901,3.298323,2.688352,3.243590
3.280987,3.298429,2.688352,3.248425
3.281037,3.298389,2.693993,3.246813
3.281027,3.298348,2.689157,3.245201
3.280937,3.298343,2.689157,3.246813
3.281037,3.298394,2.689963,3.248425
3.281047,3.298429,2.691575,3.250843
3.280947,3.298373,2.688352,3.247619
3.280896,3.298399,2.689963,3.248425
3.281017,3.298409,2.690769,3.248425
3.281078,3.298504,2.693187,3.248425
3.280962,3.298293,2.689157,3.242784
3.281012,3.298419,2.693187,3.248425
3.280967,3.298404,2.691575,3.248425
3.281027,3.298328,2.693993,3.247619
3.280876,3.298338,2.688352,3.242784
3.280987,3.298394,2.688352,3.247619
3.280942,3.298373,2.690769,3.245201
3.280972,3.298328,2.681099,3.244395
3.280735,3.298318,2.683517,3.246007
3.280841,3.298348,2.689963,3.244395
3.280851,3.298404,2.689963,3.247619
3.280745,3.298308,2.687546,3.246007
3.280775,3.298363,2.681099,3.244395
3.280745,3.298348,2.683517,3.247619
3.280866,3.298389,2.685934,3.248425
3.280705,3.298248,2.681905,3.240366
3.280730,3.298358,2.681905,3.245201
3.280725,3.298358,2.686740,3.246007
3.280841,3.298318,2.685934,3.238755
3.280529,3.298278,2.682711,3.241172
3.280750,3.298419,2.681905,3.248425
3.280715,3.298353,2.683517,3.246007
3.280534,3.298258,2.676264,3.246813
3.280599,3.298283,2.675458,3.241172
3.280579,3.298353,2.682711,3.248425
3.280695,3.298389,2.681099,3.246007
3.280559,3.298268,2.681099,3.244395
3.280639,3.298293,2.681099,3.242784
3.280649,3.298313,2.681099,3.245201
3.280700,3.298358,2.681099,3.247619
3.280594,3.298182,2.680293,3.243590
3.280569,3.298313,2.679487,3.243590
3.280619,3.298313,2.680293,3.244395
3.280685,3.298293,2.681099,3.241978
3.280503,3.298182,2.672235,3.242784
3.280584,3.298217,2.680293,3.241978
3.280569,3.298253,2.681099,3.243590
3.280594,3.298112,2.669817,3.235531
3.280443,3.298243,2.671429,3.244395
3.280609,3.298303,2.670623,3.247619
3.280498,3.298318,2.674652,3.242784
3.280393,3.298212,2.673040,3.239560
3.280418,3.298238,2.670623,3.240366
3.280403,3.298273,2.672235,3.242784
3.280514,3.298384,2.675458,3.246007
3.280508,3.298162,2.669817,3.241172
3.280448,3.298248,2.673846,3.246007
3.280508,3.298298,2.676264,3.246007
3.280554,3.298283,2.678681,3.244395
3.280408,3.298117,2.673040,3.239560
3.280524,3.298237,2.678681,3.237143
3.280458,3.298278,2.677070,3.243590
3.280614,3.298253,2.673040,3.244395
3.280342,3.298187,2.670623,3.242784
3.280413,3.298258,2.672235,3.246007
3.280463,3.298273,2.675458,3.244395
3.280383,3.298187,2.676264,3.240366
3.280383,3.298243,2.668205,3.244395
3.280428,3.298298,2.675458,3.243590
3.280428,3.298333,2.672235,3.246813
3.280418,3.298212,2.668205,3.240366
3.280367,3.298298,2.668205,3.244395
3.280423,3.298222,2.672235,3.246007
3.280544,3.298263,2.677876,3.242784
3.280302,3.298086,2.672235,3.237143
3.280438,3.298293,2.669817,3.242784
3.280398,3.298243,2.671429,3.243590
3.280393,3.298248,2.671429,3.248425
3.280277,3.298187,2.668205,3.239560
3.280393,3.298232,2.670623,3.243590
3.280322,3.298238,2.668205,3.240366
3.280468,3.298137,2.668205,3.236337
3.280277,3.298192,2.668205,3.237949
3.280378,3.298253,2.668205,3.240366
3.280352,3.298348,2.669817,3.246813
3.280257,3.298127,2.663370,3.240366
3.280257,3.298273,2.666593,3.237143
3.280327,3.298227,2.668205,3.244395
3.280443,3.298278,2.673040,3.243590
3.280231,3.298066,2.668205,3.236337
3.280307,3.298177,2.667399,3.239560
3.280247,3.298192,2.669011,3.238755
3.280332,3.298147,2.668205,3.235531
3.280231,3.298076,2.668205,3.236337
3.280247,3.298202,2.664982,3.245201
3.280287,3.298197,2.673040,3.239560
3.280317,3.298147,2.663370,3.241172
3.280196,3.298157,2.664982,3.237949
3.280342,3.298162,2.668205,3.243590
3.280257,3.298323,2.668205,3.243590
3.280252,3.298142,2.665787,3.237143
3.280181,3.298253,2.667399,3.237949
3.280247,3.298243,2.667399,3.237143
3.280317,3.298273,2.668205,3.241978
3.280221,3.298051,2.668205,3.237949
3.280252,3.298217,2.667399,3.241172
3.280282,3.298222,2.668205,3.241978
3.280307,3.298192,2.672235,3.248425
3.280196,3.298112,2.668205,3.235531
3.280267,3.298273,2.661758,3.244395
3.280242,3.298217,2.668205,3.241978
3.280357,3.298112,2.664176,3.235531
3.280201,3.298132,2.663370,3.237143
3.280262,3.298217,2.668205,3.241172
3.280247,3.298293,2.667399,3.239560
3.280131,3.298177,2.655311,3.235531
3.280146,3.298112,2.664176,3.238755
3.280176,3.298157,2.662564,3.242784
3.280226,3.298258,2.666593,3.242784
3.280126,3.298041,2.659341,3.237949
3.280141,3.298217,2.665787,3.239560
3.280166,3.298197,2.665787,3.240366
3.280247,3.298162,2.667399,3.241172
3.280025,3.298056,2.657729,3.237143
3.280171,3.298293,2.666593,3.242784
3.280191,3.298127,2.665787,3.241172
3.280196,3.298006,2.667399,3.237949
3.280010,3.298107,2.660952,3.236337
3.280075,3.298172,2.657729,3.242784
3.280166,3.298227,2.663370,3.241172
3.279954,3.298122,2.664176,3.239560
3.280040,3.298132,2.657729,3.237949
3.280146,3.298137,2.657729,3.238755
3.280085,3.298268,2.663370,3.240366
3.280010,3.298051,2.662564,3.235531
3.280040,3.298137,2.662564,3.237949
3.280035,3.298172,2.659341,3.237143
3.280211,3.298212,2.666593,3.246813
3.279975,3.298021,2.659341,3.235531
3.280156,3.298112,2.666593,3.242784
3.280176,3.298132,2.663370,3.237949
3.280151,3.298238,2.664176,3.242784
3.280166,3.298081,2.664176,3.235531
3.280307,3.298207,2.669011,3.242784
3.280282,3.298227,2.669011,3.242784
3.280503,3.298227,2.668205,3.239560
3.280398,3.298243,2.672235,3.243590
3.280433,3.298343,2.675458,3.246007
3.280619,3.298389,2.681905,3.248425
3.280680,3.298263,2.677070,3.246007
3.280770,3.298384,2.681905,3.248425
3.280977,3.298384,2.689963,3.247619
3.281083,3.298424,2.698022,3.243590
3.281022,3.298328,2.693993,3.245201
3.281143,3.298499,2.693993,3.248425
3.281234,3.298434,2.693993,3.248425
3.281269,3.298681,2.701245,3.251648
3.281183,3.298404,2.698828,3.248425
3.281410,3.298439,2.701245,3.246813
3.281440,3.298484,2.705275,3.250843
3.281460,3.298424,2.703663,3.248425
3.281319,3.298459,2.702051,3.248425
3.281501,3.298540,2.706081,3.251648
3.281486,3.298620,2.707692,3.254066
3.281435,3.298464,2.709304,3.248425
3.281430,3.298545,2.706887,3.248425
3.281521,3.298459,2.704469,3.254066
3.281627,3.298615,2.707692,3.254066
3.281455,3.298389,2.702857,3.250843
3.281501,3.298570,2.707692,3.254066
3.281581,3.298555,2.715751,3.252454
3.281606,3.298570,2.714945,3.259707
3.281440,3.298399,2.705275,3.249231
3.281511,3.298499,2.710916,3.248425
3.281506,3.298515,2.704469,3.249231
3.281415,3.298454,2.710916,3.247619
3.281370,3.298429,2.703663,3.248425
3.281410,3.298515,2.702857,3.248425
3.281486,3.298595,2.707692,3.250843
3.281360,3.298439,2.702051,3.248425
3.281450,3.298484,2.704469,3.248425
3.281511,3.298504,2.705275,3.246007
3.281606,3.298575,2.708498,3.257289
3.281501,3.298409,2.706081,3.247619
3.281526,3.298560,2.706081,3.250037
3.281556,3.298494,2.710916,3.253260
3.281617,3.298399,2.711722,3.259707
3.281460,3.298419,2.704469,3.248425
3.281541,3.298630,2.711722,3.248425
3.281526,3.298479,2.708498,3.249231
3.281531,3.298419,2.714945,3.252454
3.281405,3.298459,2.704469,3.248425
3.281571,3.298494,2.706081,3.254066
3.281491,3.298615,2.709304,3.251648
3.281531,3.298509,2.712528,3.250037
3.281405,3.298434,2.706081,3.248425
3.281501,3.298504,2.708498,3.250037
3.281455,3.298625,2.702051,3.252454
3.281355,3.298384,2.700439,3.248425
3.281345,3.298509,2.702051,3.248425
3.281365,3.298454,2.701245,3.248425
3.281460,3.298368,2.704469,3.251648
3.281204,3.298368,2.698828,3.245201
3.281289,3.298515,2.698022,3.250037
3.281289,3.298439,2.702051,3.248425
3.281224,3.298318,2.696410,3.242784
3.281133,3.298409,2.693993,3.247619
3.281335,3.298424,2.704469,3.248425
3.281254,3.298464,2.696410,3.248425
3.281385,3.298399,2.699634,3.248425
3.281103,3.298409,2.694798,3.248425
3.281244,3.298429,2.698022,3.248425
3.281309,3.298525,2.698828,3.250843
3.281163,3.298399,2.696410,3.250843
3.281209,3.298464,2.696410,3.250037
3.281199,3.298409,2.698022,3.248425
3.281329,3.298489,2.702857,3.253260
3.281188,3.298353,2.696410,3.247619
3.281294,3.298459,2.696410,3.255678
3.281299,3.298414,2.698022,3.248425
3.281335,3.298278,2.704469,3.246813
3.281108,3.298384,2.694798,3.248425
3.281324,3.298429,2.698828,3.248425
3.281289,3.298404,2.701245,3.248425
3.281304,3.298399,2.698022,3.246813
3.281153,3.298414,2.693993,3.248425
3.281259,3.298439,2.703663,3.248425
3.281229,3.298550,2.698828,3.251648
3.281118,3.298404,2.700439,3.246813
3.281158,3.298459,2.696410,3.247619
3.281163,3.298449,2.696410,3.248425
3.281289,3.298515,2.697216,3.248425
3.281083,3.298348,2.694798,3.245201
3.281078,3.298399,2.693993,3.248425
3.281057,3.298409,2.693993,3.248425
3.281178,3.298459,2.696410,3.257289
3.281017,3.298333,2.693993,3.247619
3.281118,3.298429,2.695604,3.247619
3.281042,3.298399,2.694798,3.248425
3.280947,3.298373,2.698828,3.245201
3.280977,3.298358,2.690769,3.246007
3.281017,3.298384,2.692381,3.247619
3.281037,3.298504,2.689963,3.246813
3.280997,3.298363,2.693993,3.246007
3.280992,3.298384,2.690769,3.245201
3.281022,3.298363,2.693187,3.248425
3.281052,3.298429,2.693993,3.248425
3.280967,3.298283,2.688352,3.240366
3.280957,3.298464,2.691575,3.248425
3.280977,3.298373,2.691575,3.248425
3.281037,3.298454,2.693187,3.252454
3.280841,3.298313,2.689157,3.243590
3.280942,3.298343,2.693187,3.248425
3.281002,3.298373,2.686740,3.246813
3.280942,3.298293,2.693993,3.248425
3.280806,3.298353,2.686740,3.245201
3.280816,3.298389,2.686740,3.246813
3.280891,3.298424,2.691575,3.245201
3.280786,3.298303,2.681099,3.243590
3.280806,3.298338,2.682711,3.246813
3.280927,3.298384,2.681099,3.246813
3.280916,3.298414,2.689157,3.248425
3.280775,3.298253,2.685128,3.244395
3.280791,3.298348,2.685934,3.248425
3.280806,3.298368,2.685128,3.244395
3.280891,3.298323,2.689963,3.247619
3.280705,3.298248,2.681099,3.241172
3.280780,3.298358,2.686740,3.247619
3.280891,3.298363,2.685128,3.248425
3.280806,3.298394,2.685934,3.241172
3.280695,3.298298,2.680293,3.244395
3.280831,3.298379,2.689963,3.245201
3.280770,3.298384,2.685128,3.245201
3.280740,3.298308,2.688352,3.244395
3.280650,3.298318,2.681905,3.243590
3.280685,3.298328,2.689963,3.245201
3.280740,3.298373,2.683517,3.246813
3.280650,3.298313,2.683517,3.238755
3.280700,3.298338,2.680293,3.246007
3.280730,3.298379,2.683517,3.248425
3.280811,3.298318,2.688352,3.246813
3.280655,3.298202,2.681099,3.239560
3.280750,3.298338,2.683517,3.244395
3.280710,3.298384,2.683517,3.245201
3.280715,3.298373,2.685128,3.251648
3.280629,3.298273,2.678681,3.246007
3.280760,3.298308,2.685128,3.242784
3.280750,3.298353,2.681905,3.246813
3.280639,3.298263,2.683517,3.244395
3.280584,3.298273,2.680293,3.244395
3.280725,3.298353,2.680293,3.246813
3.280690,3.298409,2.679487,3.248425
3.280655,3.298278,2.670623,3.240366
3.280609,3.298348,2.680293,3.246813
3.280644,3.298343,2.679487,3.246007
3.280725,3.298379,2.685934,3.246007
3.280574,3.298152,2.677070,3.237143
3.280639,3.298258,2.679487,3.241172
3.280660,3.298328,2.680293,3.241172
3.280685,3.298258,2.681099,3.252454
3.280488,3.298248,2.672235,3.241172
3.280660,3.298343,2.677070,3.247619
3.280599,3.298333,2.679487,3.244395
3.280685,3.298222,2.675458,3.243590
3.280498,3.298248,2.677070,3.241172
3.280589,3.298298,2.676264,3.244395
3.280619,3.298389,2.678681,3.248425
3.280539,3.298227,2.675458,3.244395
3.280503,3.298328,2.677070,3.241172
3.280559,3.298333,2.679487,3.241172
3.280644,3.298353,2.679487,3.250037
3.280539,3.298152,2.674652,3.240366
3.280519,3.298283,2.677070,3.246007
3.280539,3.298338,2.673040,3.242784
3.280624,3.298283,2.678681,3.248425
3.280443,3.298187,2.668205,3.240366
3.280574,3.298238,2.679487,3.238755
3.280514,3.298293,2.677876,3.243590
3.280634,3.298192,2.681099,3.239560
3.280367,3.298212,2.677070,3.241172
3.280428,3.298273,2.677070,3.242784
3.280483,3.298379,2.677070,3.246007
3.280367,3.298132,2.680293,3.244395
3.280438,3.298268,2.672235,3.239560
3.280418,3.298283,2.677876,3.240366
3.280534,3.298308,2.673846,3.246813
3.280362,3.298157,2.675458,3.237143
3.280458,3.298278,2.669011,3.243590
3.280453,3.298273,2.677070,3.243590
3.280604,3.298323,2.675458,3.240366
3.280322,3.298142,2.668205,3.237143
3.280448,3.298293,2.673040,3.239560
3.280463,3.298303,2.672235,3.246813
3.280448,3.298217,2.678681,3.237143
3.280282,3.298167,2.669011,3.239560
3.280367,3.298283,2.668205,3.244395
3.280413,3.298298,2.669011,3.241172
3.280418,3.298172,2.670623,3.240366
3.280302,3.298192,2.667399,3.242784
3.280357,3.298248,2.669817,3.242784
3.280373,3.298313,2.669817,3.246007
3.280277,3.298137,2.669011,3.235531
3.280297,3.298207,2.672235,3.246007
3.280322,3.298263,2.670623,3.245201
3.280403,3.298278,2.675458,3.237949
3.280262,3.298102,2.664176,3.237143
3.280332,3.298197,2.668205,3.242784
3.280317,3.298248,2.670623,3.242784
3.280438,3.298147,2.678681,3.237143
3.280237,3.298137,2.668205,3.240366
3.280352,3.298273,2.669817,3.239560
3.280307,3.298263,2.672235,3.242784
3.280393,3.298162,2.668205,3.239560
3.280307,3.298197,2.668205,3.244395
3.280448,3.298248,2.677876,3.247619
3.280488,3.298373,2.677070,3.248425
3.280453,3.298177,2.673846,3.247619
3.280554,3.298298,2.677070,3.245201
3.280665,3.298358,2.681099,3.248425
3.280806,3.298308,2.688352,3.243590
3.280700,3.298243,2.685128,3.240366
3.280962,3.298358,2.684322,3.246813
3.281027,3.298419,2.689157,3.248425
3.281012,3.298379,2.693993,3.244395
3.281052,3.298389,2.693993,3.248425
3.281299,3.298484,2.698022,3.250037
3.281375,3.298484,2.702857,3.250037
3.281481,3.298484,2.719780,3.248425
3.281415,3.298434,2.704469,3.250843
3.281546,3.298535,2.710916,3.253260
3.281586,3.298661,2.711722,3.254872
3.281526,3.298555,2.710916,3.250037
3.281647,3.298671,2.708498,3.250843
3.281737,3.298565,2.717363,3.257289
3.281853,3.298625,2.719780,3.256484
3.281758,3.298494,2.714139,3.248425
3.281848,3.298620,2.718974,3.251648
3.281778,3.298570,2.714139,3.254066
3.281883,3.298515,2.718974,3.249231
3.281707,3.298525,2.710916,3.250843
3.281828,3.298656,2.717363,3.250843
3.281823,3.298630,2.719780,3.258095
3.281783,3.298560,2.721392,3.255678
3.281758,3.298515,2.717363,3.250843
3.281944,3.298605,2.719780,3.255678
3.281853,3.298771,2.719780,3.256484
3.281823,3.298565,2.718168,3.250843
3.281833,3.298630,2.716557,3.255678
3.281873,3.298630,2.719780,3.255678
3.281929,3.298701,2.721392,3.257289
3.281833,3.298509,2.719780,3.248425
3.281853,3.298620,2.718974,3.253260
3.281894,3.298686,2.719780,3.258901
3.281959,3.298605,2.722198,3.250037
3.281843,3.298540,2.719780,3.249231
3.281934,3.298671,2.723809,3.253260
3.281939,3.298625,2.719780,3.255678
3.282050,3.298635,2.727033,3.248425
3.281828,3.298565,2.715751,3.254066
3.281939,3.298640,2.718168,3.254066
3.281899,3.298741,2.719780,3.257289
3.281989,3.298565,2.728645,3.252454
3.281848,3.298656,2.719780,3.254066
3.281883,3.298575,2.717363,3.256484
3.281914,3.298726,2.721392,3.260513
3.281863,3.298540,2.718974,3.254066
3.281873,3.298630,2.722198,3.254066
3.281914,3.298640,2.719780,3.254066
3.281924,3.298555,2.720586,3.252454
3.281657,3.298454,2.718974,3.248425
3.281823,3.298656,2.718974,3.255678
3.281773,3.298585,2.717363,3.250843
3.281737,3.298525,2.720586,3.260513
3.281591,3.298479,2.707692,3.248425
3.281702,3.298540,2.710916,3.253260
3.281692,3.298595,2.711722,3.248425
3.281657,3.298540,2.720586,3.249231
3.281536,3.298489,2.708498,3.250843
3.281546,3.298590,2.710110,3.249231
3.281606,3.298540,2.710916,3.254066
3.281541,3.298409,2.706081,3.250037
3.281471,3.298464,2.706887,3.249231
3.281606,3.298530,2.707692,3.252454
3.281727,3.298555,2.710916,3.252454
3.281506,3.298389,2.709304,3.245201
3.281546,3.298454,2.709304,3.243590
3.281521,3.298520,2.707692,3.251648
3.281531,3.298469,2.712528,3.247619
3.281390,3.298419,2.702857,3.248425
3.281531,3.298494,2.710916,3.250843
3.281521,3.298494,2.707692,3.250843
3.281385,3.298474,2.710110,3.249231
3.281455,3.298399,2.705275,3.248425
3.281516,3.298484,2.711722,3.252454
3.281521,3.298595,2.709304,3.255678
3.281481,3.298424,2.707692,3.249231
3.281435,3.298575,2.706081,3.253260
3.281521,3.298464,2.708498,3.249231
3.281531,3.298585,2.710916,3.250843
3.281450,3.298363,2.705275,3.246007
3.281501,3.298484,2.706887,3.249231
3.281445,3.298509,2.710110,3.250843
3.281571,3.298484,2.706887,3.253260
3.281360,3.298434,2.699634,3.247619
3.281445,3.298530,2.711722,3.250037
3.281415,3.298479,2.702857,3.248425
3.281541,3.298394,2.705275,3.246007
3.281284,3.298419,2.701245,3.248425
3.281385,3.298444,2.698022,3.248425
3.281355,3.298540,2.703663,3.249231
3.281274,3.298399,2.702857,3.248425
3.281209,3.298504,2.701245,3.248425
3.281360,3.298464,2.699634,3.246813
3.281345,3.298454,2.698828,3.251648
3.281143,3.298338,2.698022,3.243590
3.281249,3.298363,2.698022,3.248425
3.281219,3.298409,2.696410,3.248425
3.281304,3.298384,2.698022,3.246007
3.281093,3.298373,2.695604,3.246007
3.281219,3.298404,2.694798,3.246813
3.281148,3.298424,2.696410,3.248425
3.281204,3.298348,2.705275,3.247619
3.281052,3.298389,2.694798,3.248425
3.281178,3.298389,2.696410,3.247619
3.281108,3.298540,2.694798,3.248425
3.281037,3.298389,2.692381,3.246813
3.281073,3.298404,2.693993,3.248425
3.281118,3.298429,2.694798,3.247619
3.281133,3.298474,2.693993,3.250843
3.281052,3.298308,2.693993,3.243590
3.281057,3.298389,2.693993,3.248425
3.281098,3.298384,2.695604,3.247619
3.281133,3.298489,2.698022,3.246007
3.281002,3.298348,2.693993,3.244395
3.281093,3.298434,2.693993,3.244395
3.281052,3.298389,2.693993,3.248425
3.281017,3.298323,2.693993,3.236337
3.280957,3.298379,2.689157,3.245201
3.280992,3.298394,2.686740,3.248425
3.281022,3.298464,2.693993,3.246007
3.280836,3.298358,2.693187,3.241172
3.280967,3.298363,2.689963,3.246813
3.280962,3.298389,2.689157,3.246007
3.281017,3.298424,2.691575,3.250037
3.280886,3.298318,2.689157,3.246813
3.280911,3.298373,2.689157,3.244395
3.280922,3.298379,2.691575,3.243590
3.281022,3.298394,2.693993,3.246813
3.280841,3.298318,2.685128,3.244395
3.280937,3.298348,2.692381,3.253260
3.280967,3.298373,2.689157,3.242784
3.281052,3.298328,2.693993,3.246007
3.280765,3.298348,2.685128,3.247619
3.280831,3.298389,2.691575,3.244395
3.280942,3.298394,2.689157,3.246813
3.280886,3.298313,2.685128,3.246007
3.280816,3.298303,2.685128,3.245201
3.280911,3.298348,2.685934,3.243590
3.280886,3.298404,2.689157,3.249231
3.280846,3.298323,2.685128,3.241978
3.280831,3.298373,2.685128,3.248425
3.280831,3.298358,2.688352,3.246813
3.280942,3.298404,2.689963,3.244395
3.280786,3.298227,2.685128,3.242784
3.280937,3.298348,2.684322,3.250037
3.280881,3.298368,2.689157,3.248425
3.280851,3.298283,2.684322,3.244395
3.280690,3.298227,2.682711,3.241172
3.280745,3.298303,2.685934,3.246813
3.280755,3.298338,2.685934,3.245201
3.280700,3.298323,2.689963,3.241172
3.280685,3.298303,2.680293,3.243590
3.280806,3.298313,2.682711,3.242784
3.280765,3.298384,2.685934,3.248425
3.280685,3.298293,2.681905,3.241172
3.280700,3.298384,2.683517,3.246007
3.280760,3.298333,2.681905,3.245201
3.280866,3.298343,2.683517,3.246813
3.280670,3.298197,2.681099,3.239560
3.280765,3.298318,2.681905,3.244395
3.280710,3.298323,2.688352,3.245201
3.280791,3.298353,2.685934,3.246813
3.280604,3.298248,2.680293,3.242784
3.280675,3.298313,2.681905,3.248425
3.280710,3.298318,2.683517,3.246813
3.280780,3.298217,2.685128,3.238755
3.280634,3.298303,2.677876,3.247619
3.280760,3.298323,2.681099,3.244395
3.280720,3.298389,2.681905,3.246007
3.280584,3.298278,2.673040,3.244395
3.280655,3.298328,2.679487,3.241172
3.280680,3.298263,2.681905,3.247619
3.280720,3.298348,2.681905,3.247619
3.280629,3.298152,2.679487,3.241172
3.280609,3.298323,2.678681,3.245201
3.280619,3.298298,2.676264,3.244395
3.280639,3.298232,2.681905,3.254066
3.280478,3.298227,2.676264,3.240366
3.280655,3.298293,2.678681,3.240366
3.280584,3.298328,2.681099,3.246007
3.280554,3.298212,2.680293,3.235531
3.280453,3.298248,2.671429,3.243590
3.280599,3.298288,2.676264,3.243590
3.280503,3.298338,2.678681,3.244395
3.280292,3.298227,2.669817,3.237949
3.280408,3.298248,2.671429,3.238755
3.280473,3.298258,2.675458,3.244395
3.280503,3.298318,2.676264,3.248425
3.280453,3.298127,2.676264,3.237949
3.280473,3.298278,2.675458,3.241172
3.280448,3.298283,2.673040,3.240366
3.280529,3.298258,2.678681,3.243590
3.280393,3.298117,2.668205,3.237143
3.280478,3.298182,2.677070,3.245201
3.280448,3.298202,2.676264,3.242784
3.280438,3.298258,2.677876,3.244395
3.280277,3.298222,2.669011,3.241172
3.280418,3.298227,2.670623,3.241172
3.280383,3.298293,2.671429,3.237949
3.280388,3.298192,2.663370,3.242784
3.280267,3.298222,2.670623,3.237143
3.280332,3.298243,2.663370,3.242784
3.280322,3.298313,2.670623,3.243590
3.280277,3.298137,2.668205,3.236337
3.280302,3.298232,2.668205,3.241978
3.280337,3.298263,2.673040,3.242784
3.280529,3.298197,2.679487,3.248425
3.280347,3.298152,2.680293,3.237143
3.280609,3.298283,2.677876,3.245201
3.280569,3.298318,2.680293,3.245201
3.280604,3.298187,2.677070,3.239560
3.280645,3.298273,2.678681,3.241172
3.280791,3.298368,2.683517,3.242784
3.280906,3.298384,2.689963,3.248425
3.280911,3.298373,2.693993,3.245201
3.281022,3.298394,2.692381,3.247619
3.281219,3.298434,2.698022,3.248425
3.281279,3.298555,2.696410,3.253260
3.281289,3.298409,2.702051,3.249231
3.281279,3.298449,2.702857,3.252454
3.281491,3.298474,2.706887,3.248425
3.281607,3.298560,2.710916,3.252454
3.281511,3.298414,2.706887,3.248425
3.281596,3.298640,2.710916,3.249231
3.281541,3.298565,2.710916,3.255678
3.281632,3.298545,2.714139,3.253260
3.281506,3.298484,2.710916,3.248425
3.281692,3.298540,2.710916,3.256484
3.281768,3.298545,2.715751,3.253260
3.281798,3.298449,2.708498,3.248425
3.281617,3.298520,2.708498,3.250843
3.281707,3.298545,2.710916,3.250843
3.281707,3.298656,2.714945,3.257289
3.281576,3.298489,2.702857,3.251648
3.281612,3.298570,2.715751,3.250037
3.281707,3.298535,2.714139,3.256484
3.281753,3.298575,2.714945,3.253260
3.281571,3.298399,2.710916,3.249231
3.281707,3.298545,2.708498,3.252454
3.281627,3.298535,2.711722,3.251648
3.281662,3.298610,2.716557,3.252454
3.281531,3.298404,2.708498,3.248425
3.281672,3.298575,2.710916,3.252454
3.281662,3.298550,2.710916,3.253260
3.281813,3.298474,2.719780,3.246813
3.281561,3.298469,2.707692,3.248425
3.281717,3.298515,2.712528,3.250843
3.281687,3.298691,2.715751,3.252454
3.281642,3.298504,2.704469,3.250843
3.281556,3.298545,2.712528,3.250843
3.281707,3.298530,2.712528,3.249231
3.281788,3.298570,2.714139,3.254066
3.281586,3.298384,2.710916,3.248425
3.281607,3.298484,2.710916,3.248425
3.281617,3.298494,2.710110,3.250037
3.281692,3.298540,2.712528,3.246813
3.281496,3.298409,2.706887,3.248425
3.281637,3.298474,2.710916,3.250843
3.281612,3.298489,2.708498,3.251648
3.281415,3.298414,2.699634,3.256484
3.281370,3.298399,2.706081,3.248425
3.281506,3.298525,2.706081,3.248425
3.281491,3.298525,2.707692,3.250843
3.281430,3.298424,2.699634,3.249231
3.281390,3.298409,2.700439,3.248425
3.281445,3.298464,2.707692,3.249231
3.281435,3.298535,2.705275,3.250843
3.281239,3.298333,2.698022,3.247619
3.281279,3.298429,2.699634,3.249231
3.281350,3.298429,2.701245,3.248425
3.281415,3.298474,2.706081,3.248425
3.281183,3.298363,2.702051,3.244395
3.281335,3.298454,2.706081,3.247619
3.281355,3.298444,2.702857,3.249231
3.281415,3.298353,2.701245,3.246813
3.281153,3.298389,2.698022,3.247619
3.281199,3.298434,2.701245,3.248425
3.281335,3.298434,2.698828,3.248425
3.281324,3.298384,2.699634,3.248425
3.281224,3.298399,2.701245,3.248425
3.281314,3.298469,2.699634,3.248425
3.281319,3.298479,2.701245,3.248425
3.281234,3.298384,2.699634,3.248425
3.281204,3.298414,2.699634,3.250037
3.281299,3.298449,2.701245,3.249231
3.281465,3.298444,2.705275,3.248425
3.281209,3.298323,2.706081,3.242784
3.281269,3.298424,2.701245,3.248425
3.281269,3.298404,2.702051,3.248425
3.281365,3.298404,2.699634,3.241172
3.281108,3.298379,2.693993,3.246007
3.281239,3.298399,2.705275,3.248425
3.281234,3.298399,2.696410,3.248425
3.281324,3.298379,2.702857,3.247619
3.281204,3.298394,2.694798,3.248425
3.281335,3.298434,2.696410,3.248425
3.281244,3.298469,2.698828,3.248425
3.281128,3.298358,2.695604,3.245201
3.281098,3.298429,2.693993,3.248425
3.281178,3.298394,2.696410,3.248425
3.281254,3.298444,2.702857,3.248425
3.281058,3.298298,2.695604,3.242784
3.281103,3.298348,2.694798,3.245201
3.281073,3.298363,2.693187,3.247619
3.281113,3.298283,2.693993,3.250843
3.281012,3.298328,2.693187,3.245201
3.281133,3.298368,2.695604,3.244395
3.281047,3.298394,2.696410,3.248425
3.281017,3.298343,2.696410,3.240366
3.280997,3.298368,2.692381,3.247619
3.281098,3.298384,2.693993,3.248425
3.281063,3.298489,2.693993,3.252454
3.281017,3.298363,2.689157,3.247619
3.281032,3.298389,2.692381,3.246007
3.281002,3.298384,2.692381,3.249231
3.281083,3.298434,2.689157,3.248425
3.280972,3.298248,2.692381,3.246007
3.281047,3.298363,2.693187,3.246813
3.281037,3.298384,2.693993,3.246007
3.281073,3.298419,2.693993,3.249231
3.280886,3.298313,2.685128,3.244395
3.280952,3.298384,2.694798,3.246813
3.281012,3.298368,2.692381,3.245201
3.280957,3.298323,2.689963,3.242784
3.280826,3.298328,2.686740,3.245201
3.280831,3.298389,2.693187,3.246007
3.280967,3.298424,2.689157,3.248425
3.280770,3.298273,2.681905,3.246007
3.280851,3.298343,2.687546,3.246007
3.280917,3.298368,2.687546,3.245201
3.280952,3.298379,2.689157,3.246813
3.280846,3.298263,2.685128,3.245201
3.280851,3.298313,2.685128,3.244395
3.280755,3.298353,2.682711,3.247619
3.280937,3.298338,2.689963,3.243590
3.280639,3.298258,2.680293,3.241172
3.280871,3.298373,2.687546,3.245201
3.280786,3.298328,2.685128,3.244395
3.280725,3.298268,2.692381,3.242784
3.280629,3.298273,2.681099,3.240366
3.280781,3.298333,2.685128,3.246007
3.280745,3.298348,2.681099,3.244395
3.280876,3.298258,2.685934,3.239560
3.280680,3.298263,2.681905,3.239560
3.280740,3.298308,2.681099,3.241978
3.280775,3.298373,2.681099,3.246007
3.280665,3.298248,2.682711,3.246007
3.280660,3.298323,2.681905,3.244395
3.280725,3.298338,2.682711,3.243590
3.280735,3.298283,2.685934,3.246813
3.280599,3.298182,2.681905,3.238755
3.280710,3.298217,2.681099,3.243590
3.280695,3.298328,2.685128,3.242784
3.280770,3.298343,2.680293,3.248425
3.280564,3.298222,2.675458,3.240366
3.280705,3.298313,2.676264,3.237949
3.280665,3.298308,2.678681,3.244395
3.280559,3.298243,2.681905,3.240366
3.280574,3.298293,2.680293,3.242784
3.280705,3.298313,2.681099,3.243590
3.280710,3.298373,2.681099,3.247619
3.280650,3.298258,2.681099,3.244395
3.280655,3.298343,2.677070,3.244395
3.280645,3.298313,2.680293,3.246813
3.280715,3.298278,2.683517,3.248425
3.280619,3.298147,2.680293,3.241172
3.280665,3.298288,2.682711,3.239560
3.280665,3.298283,2.679487,3.243590
3.280655,3.298288,2.681905,3.243590
3.280493,3.298172,2.676264,3.241172
3.280574,3.298227,2.675458,3.238755
3.280589,3.298283,2.681099,3.241172
3.280428,3.298207,2.681099,3.237949
3.280423,3.298238,2.670623,3.238755
3.280478,3.298212,2.682711,3.246007
3.280514,3.298373,2.677070,3.246813
3.280529,3.298177,2.668205,3.236337
3.280408,3.298303,2.674652,3.246007
3.280549,3.298243,2.675458,3.241978
3.280609,3.298308,2.677876,3.247619
3.280443,3.298096,2.673846,3.239560
3.280514,3.298238,2.673040,3.241172
3.280488,3.298217,2.672235,3.245201
3.280509,3.298253,2.675458,3.239560
3.280312,3.298127,2.670623,3.238755
3.280564,3.298192,2.678681,3.248425
3.280448,3.298268,2.672235,3.239560
3.280428,3.298217,2.680293,3.239560
3.280342,3.298197,2.670623,3.235531
3.280352,3.298248,2.668205,3.240366
3.280383,3.298358,2.671429,3.242784
3.280337,3.298147,2.668205,3.242784
3.280373,3.298268,2.669011,3.240366
3.280357,3.298253,2.670623,3.237949
3.280478,3.298293,2.673040,3.244395
3.280297,3.298086,2.669011,3.237949
3.280337,3.298147,2.669011,3.241172
3.280378,3.298207,2.671429,3.239560
3.280428,3.298107,2.675458,3.246007
3.280257,3.298107,2.668205,3.235531
3.280418,3.298263,2.669817,3.241172
3.280383,3.298212,2.669011,3.242784
3.280307,3.298157,2.675458,3.237949
3.280232,3.298137,2.666593,3.237949
3.280307,3.298192,2.663370,3.240366
3.280282,3.298293,2.668205,3.241978
3.280216,3.298102,2.670623,3.236337
3.280252,3.298162,2.668205,3.238755
3.280287,3.298192,2.668205,3.237949
3.280307,3.298333,2.669011,3.247619
3.280277,3.298112,2.671429,3.239560
3.280272,3.298207,2.669817,3.238755
3.280368,3.298217,2.669817,3.244395
3.280559,3.298363,2.678681,3.244395
3.280498,3.298157,2.676264,3.238755
3.280624,3.298288,2.681099,3.241172
3.280655,3.298318,2.679487,3.242784
3.280770,3.298212,2.692381,3.243590
3.280655,3.298278,2.681905,3.242784
3.280760,3.298308,2.694798,3.242784
3.281027,3.298399,2.688352,3.248425
3.281103,3.298379,2.694798,3.245201
3.281083,3.298379,2.693993,3.246813
3.281133,3.298439,2.696410,3.248425
3.281269,3.298489,2.698828,3.250037
3.281294,3.298399,2.698022,3.248425
3.281330,3.298464,2.702051,3.250037
3.281385,3.298499,2.706081,3.248425
3.281551,3.298484,2.708498,3.248425
3.281400,3.298389,2.705275,3.246813
3.281596,3.298454,2.710916,3.255678
3.281521,3.298545,2.714139,3.251648
3.281591,3.298535,2.707692,3.250843
3.281450,3.298459,2.706887,3.248425
3.281581,3.298509,2.711722,3.253260
3.281627,3.298535,2.709304,3.251648
3.281662,3.298419,2.716557,3.250843
3.281566,3.298459,2.714139,3.250843
3.281536,3.298489,2.706081,3.250843
3.281632,3.298570,2.709304,3.257289
3.281531,3.298434,2.710916,3.248425
3.281521,3.298550,2.710110,3.252454
3.281541,3.298459,2.710916,3.252454
3.281697,3.298575,2.718168,3.252454
3.281551,3.298394,2.708498,3.248425
3.281677,3.298449,2.709304,3.254066
3.281551,3.298489,2.705275,3.250037
3.281758,3.298600,2.711722,3.251648
3.281435,3.298424,2.708498,3.248425
3.281697,3.298429,2.717363,3.252454
3.281601,3.298509,2.706887,3.250843
3.281617,3.298439,2.700439,3.250037
3.281531,3.298474,2.706081,3.248425
3.281551,3.298474,2.711722,3.250843
3.281586,3.298656,2.712528,3.256484
3.281481,3.298419,2.715751,3.248425
3.281571,3.298509,2.708498,3.248425
3.281546,3.298494,2.709304,3.250037
3.281692,3.298585,2.709304,3.255678
3.281586,3.298368,2.711722,3.246813
3.281591,3.298525,2.706887,3.250037
3.281586,3.298484,2.705275,3.248425
3.281601,3.298520,2.708498,3.241978
3.281405,3.298379,2.705275,3.245201
3.281531,3.298504,2.708498,3.251648
3.281486,3.298434,2.710110,3.249231
3.281450,3.298414,2.698828,3.248425
3.281330,3.298394,2.699634,3.248425
3.281445,3.298434,2.707692,3.248425
3.281420,3.298555,2.702857,3.249231
3.281319,3.298384,2.702051,3.248425
3.281345,3.298424,2.701245,3.248425
3.281365,3.298409,2.694798,3.248425
3.281390,3.298520,2.705275,3.249231
3.281279,3.298373,2.696410,3.243590
3.281249,3.298444,2.702051,3.248425
3.281319,3.298424,2.701245,3.248425
3.281400,3.298464,2.702051,3.248425
3.281249,3.298368,2.698022,3.243590
3.281289,3.298459,2.702857,3.248425
3.281350,3.298414,2.704469,3.248425
3.281405,3.298389,2.699634,3.244395
3.281204,3.298389,2.696410,3.248425
3.281410,3.298409,2.707692,3.249231
3.281360,3.298449,2.702051,3.248425
3.281178,3.298414,2.704469,3.248425
3.281289,3.298379,2.701245,3.248425
3.281309,3.298414,2.696410,3.248425
3.281319,3.298525,2.701245,3.250037
3.281289,3.298363,2.704469,3.243590
3.281319,3.298499,2.701245,3.250843
3.281309,3.298454,2.702857,3.248425
3.281435,3.298419,2.706081,3.247619
3.281340,3.298373,2.701245,3.246007
3.281405,3.298464,2.705275,3.250843
3.281360,3.298434,2.698828,3.247619
3.281340,3.298424,2.708498,3.248425
3.281173,3.298384,2.695604,3.247619
3.281314,3.298449,2.702051,3.249231
3.281345,3.298464,2.702051,3.248425
3.281183,3.298379,2.706081,3.248425
3.281143,3.298373,2.698022,3.246813
3.281264,3.298389,2.703663,3.248425
3.281199,3.298464,2.698022,3.253260
3.281153,3.298348,2.695604,3.242784
3.281148,3.298419,2.698828,3.248425
3.281163,3.298384,2.696410,3.250037
3.281299,3.298494,2.702857,3.246007
3.281128,3.298348,2.693993,3.246007
3.281214,3.298434,2.694798,3.252454
3.281133,3.298414,2.693993,3.248425
3.281118,3.298288,2.699634,3.248425
3.281073,3.298358,2.693993,3.246813
3.281219,3.298404,2.693993,3.253260
3.281098,3.298384,2.694798,3.247619
3.281037,3.298358,2.693993,3.246007
3.281042,3.298363,2.691575,3.245201
3.281098,3.298368,2.692381,3.245201
3.281068,3.298444,2.694798,3.249231
3.280992,3.298323,2.692381,3.248425
3.281022,3.298384,2.691575,3.247619
3.281037,3.298363,2.693993,3.246007
3.281113,3.298434,2.693993,3.250843
3.281017,3.298258,2.692381,3.242784
3.281063,3.298379,2.693187,3.248425
3.281053,3.298389,2.689157,3.244395
3.281017,3.298373,2.693993,3.248425
3.280851,3.298323,2.691575,3.246007
3.281032,3.298363,2.689963,3.240366
3.281022,3.298373,2.693993,3.248425
3.281022,3.298338,2.693993,3.247619
3.280937,3.298358,2.686740,3.244395
3.280871,3.298389,2.689963,3.248425
3.280977,3.298439,2.689963,3.246813
3.280927,3.298338,2.692381,3.244395
3.280947,3.298394,2.690769,3.246007
3.281022,3.298363,2.693187,3.244395
3.281012,3.298404,2.692381,3.247619
3.280891,3.298268,2.684322,3.244395
3.280881,3.298343,2.689157,3.248425
3.280962,3.298379,2.688352,3.246007
3.281027,3.298424,2.692381,3.241978
3.280775,3.298288,2.681905,3.246007
3.280947,3.298338,2.689963,3.248425
3.280871,3.298358,2.691575,3.246007
3.280927,3.298328,2.688352,3.237949
3.280760,3.298298,2.681905,3.243590
3.280962,3.298368,2.686740,3.245201
3.280937,3.298394,2.688352,3.246007
3.280846,3.298328,2.679487,3.246007
3.280836,3.298338,2.686740,3.245201
3.280911,3.298348,2.693993,3.245201
3.280891,3.298373,2.686740,3.248425
3.280775,3.298232,2.686740,3.239560
3.280791,3.298368,2.685128,3.245201
3.280861,3.298343,2.683517,3.246007
3.280911,3.298373,2.688352,3.241172
3.280705,3.298243,2.681905,3.242784
3.280816,3.298348,2.686740,3.247619
3.280770,3.298358,2.688352,3.244395
3.280896,3.298348,2.689963,3.239560
3.280675,3.298288,2.681905,3.244395
3.280786,3.298363,2.682711,3.248425
3.280770,3.298368,2.685934,3.242784
3.280791,3.298323,2.682711,3.244395
3.280705,3.298263,2.682711,3.246007
3.280700,3.298343,2.681905,3.244395
3.280755,3.298414,2.681099,3.248425
3.280690,3.298308,2.681099,3.247619
3.280660,3.298318,2.681905,3.246007
3.280700,3.298343,2.683517,3.244395
3.280755,3.298338,2.689157,3.250843
3.280705,3.298217,2.681099,3.242784
3.280770,3.298273,2.685934,3.246007
3.280806,3.298328,2.683517,3.244395
3.280821,3.298167,2.688352,3.246813
3.280629,3.298258,2.678681,3.241978
3.280650,3.298323,2.681099,3.245201
3.280700,3.298323,2.681905,3.246007
3.280645,3.298243,2.689963,3.241978
3.280624,3.298273,2.680293,3.243590
3.280700,3.298318,2.681099,3.246007
3.280650,3.298384,2.681099,3.247619
3.280614,3.298298,2.683517,3.237949
3.280645,3.298363,2.678681,3.245201
3.280609,3.298353,2.682711,3.246813
3.280720,3.298384,2.684322,3.244395
3.280554,3.298142,2.672235,3.240366
3.280650,3.298278,2.681099,3.242784
3.280660,3.298323,2.681099,3.245201
3.280695,3.298222,2.683517,3.240366
3.280509,3.298187,2.677070,3.237949
3.280655,3.298333,2.681099,3.243590
3.280549,3.298278,2.677876,3.242784
3.280574,3.298222,2.681905,3.239560
3.280488,3.298283,2.673846,3.240366
3.280650,3.298318,2.678681,3.245201
3.280589,3.298384,2.677070,3.247619
3.280453,3.298197,2.672235,3.244395
3.280488,3.298313,2.676264,3.241978
3.280564,3.298283,2.677070,3.244395
3.280670,3.298338,2.678681,3.246813
3.280509,3.298177,2.677070,3.236337
3.280504,3.298273,2.675458,3.242784
3.280604,3.298298,2.676264,3.242784
3.280594,3.298283,2.680293,3.237143
3.280312,3.298182,2.669817,3.239560
3.280504,3.298232,2.670623,3.246813
3.280514,3.298243,2.678681,3.239560
3.280473,3.298162,2.673846,3.239560
3.280352,3.298182,2.669011,3.242784
3.280403,3.298293,2.669011,3.239560
3.280458,3.298363,2.676264,3.244395
3.280378,3.298283,2.668205,3.241172
3.280468,3.298278,2.673040,3.241172
3.280574,3.298298,2.673846,3.244395
3.280655,3.298368,2.678681,3.249231
3.280640,3.298222,2.677070,3.240366
3.280675,3.298318,2.681905,3.248425
3.280836,3.298379,2.682711,3.246007
3.280952,3.298444,2.689963,3.246813
3.280932,3.298308,2.685934,3.246007
3.281063,3.298444,2.693187,3.246007
3.281143,3.298424,2.693993,3.248425
3.281410,3.298343,2.702857,3.248425
3.281229,3.298449,2.695604,3.246813
3.281471,3.298545,2.709304,3.250037
3.281536,3.298570,2.708498,3.250843
3.281420,3.298494,2.710916,3.249231
3.281576,3.298530,2.709304,3.248425
3.281732,3.298585,2.715751,3.250037
3.281783,3.298711,2.717363,3.256484
3.281763,3.298555,2.710110,3.249231
3.281848,3.298666,2.718974,3.255678
3.281879,3.298620,2.719780,3.250843
3.281934,3.298525,2.723809,3.255678
3.281853,3.298535,2.718168,3.248425
3.281909,3.298620,2.721392,3.258901
3.281919,3.298620,2.722198,3.257289
3.282025,3.298555,2.719780,3.254066
3.281868,3.298575,2.718168,3.254066
3.281944,3.298620,2.724615,3.256484
3.281929,3.298696,2.721392,3.255678
3.281949,3.298595,2.719780,3.252454
3.281889,3.298645,2.719780,3.253260
3.281954,3.298661,2.722198,3.255678
3.281924,3.298751,2.722198,3.259707
3.281889,3.298585,2.728645,3.250037
3.281934,3.298686,2.723809,3.259707
3.281979,3.298651,2.723809,3.258901
3.282065,3.298681,2.726227,3.261319
3.281919,3.298515,2.725421,3.253260
3.282065,3.298706,2.723809,3.258901
3.281939,3.298661,2.719780,3.255678
3.282085,3.298736,2.724615,3.254066
3.281894,3.298610,2.720586,3.250843
3.282025,3.298736,2.729450,3.255678
3.282050,3.298661,2.725421,3.255678
3.282055,3.298615,2.725421,3.253260
3.281929,3.298645,2.720586,3.255678
3.282145,3.298706,2.731868,3.256484
3.282085,3.298766,2.727033,3.260513
3.281999,3.298671,2.727839,3.250843
3.282050,3.298746,2.724615,3.256484
3.282035,3.298686,2.723809,3.253260
3.282196,3.298766,2.727033,3.254066
3.282004,3.298504,2.723809,3.250843
3.282015,3.298696,2.723809,3.253260
3.282015,3.298671,2.723809,3.255678
3.281999,3.298691,2.727033,3.253260
3.281884,3.298600,2.718974,3.252454
3.281919,3.298686,2.721392,3.255678
3.281894,3.298656,2.720586,3.253260
3.281833,3.298525,2.724615,3.248425
3.281808,3.298555,2.719780,3.252454
3.281904,3.298610,2.718168,3.253260
3.281848,3.298721,2.718974,3.254066
3.281712,3.298545,2.715751,3.252454
3.281773,3.298560,2.711722,3.250843
3.281818,3.298610,2.716557,3.254066
3.281853,3.298661,2.718974,3.254066
3.281692,3.298469,2.714945,3.247619
3.281717,3.298605,2.713333,3.255678
3.281677,3.298565,2.715751,3.255678
3.281808,3.298459,2.714139,3.256484
3.281591,3.298439,2.710916,3.248425
3.281748,3.298550,2.715751,3.258901
3.281763,3.298535,2.714945,3.251648
3.281732,3.298515,2.712528,3.258095
3.281667,3.298494,2.709304,3.248425
3.281843,3.298570,2.719780,3.248425
3.281803,3.298640,2.712528,3.251648
3.281707,3.298515,2.711722,3.249231
3.281687,3.298530,2.714139,3.252454
3.281848,3.298625,2.712528,3.250843
3.281843,3.298676,2.717363,3.256484
3.281712,3.298434,2.714945,3.248425
3.281702,3.298565,2.714945,3.257289
3.281737,3.298545,2.715751,3.252454
3.281808,3.298535,2.719780,3.251648
3.281612,3.298424,2.714945,3.250037
3.281748,3.298600,2.714139,3.248425
3.281682,3.298530,2.711722,3.249231
3.281743,3.298459,2.715751,3.248425
3.281496,3.298444,2.704469,3.248425
3.281617,3.298494,2.719780,3.251648
3.281556,3.298570,2.711722,3.251648
3.281576,3.298449,2.711722,3.248425
3.281450,3.298449,2.706081,3.248425
3.281637,3.298499,2.717363,3.252454
3.281602,3.298550,2.706887,3.250843
3.281506,3.298419,2.707692,3.250037
3.281486,3.298515,2.705275,3.252454
3.281521,3.298469,2.707692,3.248425
3.281607,3.298414,2.712528,3.248425
3.281506,3.298384,2.707692,3.246813
3.281591,3.298449,2.709304,3.253260
3.281511,3.298509,2.708498,3.250843
3.281617,3.298414,2.706887,3.246813
3.281330,3.298419,2.705275,3.248425
3.281410,3.298404,2.699634,3.247619
3.281405,3.298439,2.705275,3.252454
3.281325,3.298419,2.706887,3.248425
3.281325,3.298439,2.699634,3.248425
3.281325,3.298484,2.698022,3.251648
3.281360,3.298535,2.703663,3.254066
3.281269,3.298409,2.704469,3.248425
3.281219,3.298479,2.698828,3.249231
3.281330,3.298449,2.699634,3.248425
3.281440,3.298489,2.708498,3.248425
3.281244,3.298363,2.698022,3.244395
3.281289,3.298429,2.695604,3.244395
3.281309,3.298429,2.702051,3.248425
3.281254,3.298288,2.696410,3.250843
3.281053,3.298368,2.693993,3.246813
3.281209,3.298474,2.693187,3.241978
3.281209,3.298419,2.698828,3.248425
3.281244,3.298373,2.698022,3.248425
3.281088,3.298399,2.693187,3.247619
3.281209,3.298404,2.702051,3.248425
3.281098,3.298560,2.695604,3.250843
3.281073,3.298399,2.693993,3.247619
3.281103,3.298454,2.693993,3.246813
3.281138,3.298434,2.693993,3.247619
3.281204,3.298499,2.696410,3.248425
3.281063,3.298333,2.694798,3.245201
3.281088,3.298409,2.692381,3.248425
3.281113,3.298404,2.698022,3.248425
3.281093,3.298258,2.698022,3.248425
3.280997,3.298353,2.685934,3.246007
3.281073,3.298379,2.696410,3.249231
3.281053,3.298419,2.693993,3.246813
3.281133,3.298363,2.692381,3.247619
3.280967,3.298368,2.689963,3.246813
3.281083,3.298384,2.696410,3.247619
3.281063,3.298449,2.691575,3.248425
3.280922,3.298389,2.689963,3.246007
3.281017,3.298404,2.692381,3.246007
3.281078,3.298409,2.695604,3.243590
3.281123,3.298459,2.693993,3.250843
3.281047,3.298328,2.692381,3.239560
3.281002,3.298459,2.694798,3.248425
3.281063,3.298414,2.693993,3.247619
3.281083,3.298444,2.696410,3.246813
3.280906,3.298353,2.693993,3.243590
3.281042,3.298424,2.695604,3.248425
3.281027,3.298384,2.689963,3.247619
3.280896,3.298268,2.693993,3.241172
3.280927,3.298373,2.685934,3.244395
3.280997,3.298404,2.693993,3.248425
3.281022,3.298424,2.693187,3.248425
3.280801,3.298373,2.689963,3.246007
3.280977,3.298353,2.689963,3.244395
3.281007,3.298424,2.686740,3.250843
3.281068,3.298454,2.692381,3.248425
3.280876,3.298323,2.691575,3.243590
3.280922,3.298409,2.688352,3.248425
3.280972,3.298394,2.692381,3.244395
3.281002,3.298293,2.689963,3.251648
3.280861,3.298278,2.686740,3.242784
3.280927,3.298404,2.685128,3.249231
3.280927,3.298373,2.688352,3.247619
3.280912,3.298368,2.685128,3.248425
3.280781,3.298273,2.683517,3.245201
3.280861,3.298379,2.692381,3.247619
3.280912,3.298373,2.685128,3.246813
3.280901,3.298283,2.681099,3.243590
3.280806,3.298328,2.685934,3.243590
3.280866,3.298368,2.691575,3.247619
3.280861,3.298414,2.683517,3.248425
3.280750,3.298358,2.684322,3.246007
3.280770,3.298373,2.681099,3.244395
3.280786,3.298379,2.685128,3.246813
3.280977,3.298368,2.689963,3.246007
3.280770,3.298202,2.681099,3.243590
3.280811,3.298328,2.682711,3.248425
3.280735,3.298358,2.681905,3.246813
3.280765,3.298318,2.689963,3.248425
3.280614,3.298278,2.681099,3.243590
3.280770,3.298343,2.683517,3.246813
3.280770,3.298338,2.683517,3.244395
3.280670,3.298283,2.685934,3.246813
3.280690,3.298343,2.681905,3.246813
3.280710,3.298368,2.680293,3.246007
3.280750,3.298424,2.684322,3.248425
3.280680,3.298253,2.682711,3.243590
3.280745,3.298389,2.681905,3.246813
3.280776,3.298338,2.681099,3.245201
3.280871,3.298399,2.685128,3.248425
3.280710,3.298263,2.681099,3.241172
3.280770,3.298389,2.683517,3.245201
3.280740,3.298358,2.681905,3.244395
3.280826,3.298384,2.688352,3.248425
3.280685,3.298293,2.682711,3.241172
3.280821,3.298399,2.689963,3.242784
3.280947,3.298379,2.688352,3.248425
3.281022,3.298328,2.693993,3.248425
3.281017,3.298389,2.689963,3.247619
3.281073,3.298424,2.693187,3.248425
3.281239,3.298595,2.698828,3.249231
3.281360,3.298414,2.705275,3.248425
3.281435,3.298530,2.706887,3.250843
3.281566,3.298540,2.708498,3.253260
3.281763,3.298625,2.714945,3.254066
3.281667,3.298474,2.711722,3.248425
3.281818,3.298716,2.718168,3.254066
3.281884,3.298610,2.719780,3.254872
3.281959,3.298726,2.721392,3.250037
3.281853,3.298600,2.719780,3.251648
3.282055,3.298711,2.721392,3.258901
3.282120,3.298681,2.727033,3.257289
3.282176,3.298656,2.730256,3.258095
3.281984,3.298661,2.722198,3.254066
3.282201,3.298746,2.727839,3.255678
3.282191,3.298781,2.730256,3.255678
3.282201,3.298696,2.728645,3.255678
3.282151,3.298711,2.727839,3.255678
3.282211,3.298756,2.731868,3.251648
3.282211,3.298771,2.730256,3.261319
3.282216,3.298681,2.728645,3.254872
3.282201,3.298756,2.732674,3.258901
3.282211,3.298751,2.734286,3.257289
3.282322,3.298756,2.734286,3.261319
3.282115,3.298635,2.728645,3.255678
3.282221,3.298676,2.732674,3.253260
3.282196,3.298771,2.732674,3.259707
3.282226,3.298721,2.735898,3.256484
3.282085,3.298706,2.727033,3.255678
3.282266,3.298766,2.731868,3.261319
3.282216,3.298756,2.731062,3.260513
3.282226,3.298701,2.727033,3.256484
3.282211,3.298726,2.728645,3.258901
3.282191,3.298776,2.735092,3.257289
3.282281,3.298792,2.733480,3.261319
3.282221,3.298645,2.731868,3.259707
3.282246,3.298797,2.728645,3.261319
3.282251,3.298771,2.731868,3.260513
3.282382,3.298741,2.735898,3.263736
3.282221,3.298630,2.730256,3.255678
3.282327,3.298751,2.735092,3.252454
3.282271,3.298746,2.732674,3.259707
3.282271,3.298797,2.734286,3.255678
3.282176,3.298696,2.730256,3.255678
3.282251,3.298756,2.732674,3.257289
3.282256,3.298781,2.731868,3.258901
3.282251,3.298671,2.733480,3.255678
3.282135,3.298691,2.727839,3.257289
3.282166,3.298721,2.732674,3.258901
3.282176,3.298792,2.731062,3.261319
3.282065,3.298651,2.723809,3.256484
3.282030,3.298721,2.724615,3.257289
3.282045,3.298716,2.727839,3.255678
3.282166,3.298721,2.731868,3.258901
3.282009,3.298530,2.722198,3.249231
3.281954,3.298640,2.723809,3.257289
3.281999,3.298706,2.718974,3.255678
3.282095,3.298570,2.727839,3.255678
3.281853,3.298570,2.714945,3.252454
3.281909,3.298620,2.721392,3.256484
3.281914,3.298620,2.716557,3.255678
3.281999,3.298600,2.730256,3.253260
3.281838,3.298625,2.719780,3.250037
3.282004,3.298620,2.720586,3.253260
3.281904,3.298756,2.720586,3.260513
3.281823,3.298550,2.723809,3.250037
3.281894,3.298625,2.722198,3.252454
3.281879,3.298630,2.719780,3.253260
3.281964,3.298701,2.723809,3.254066
3.281894,3.298454,2.718168,3.249231
3.281899,3.298666,2.719780,3.255678
3.281939,3.298661,2.718974,3.256484
3.281969,3.298525,2.719780,3.256484
3.281828,3.298575,2.718974,3.250843
3.281919,3.298595,2.719780,3.250843
3.281904,3.298640,2.719780,3.254066
3.281914,3.298575,2.717363,3.250037
3.281823,3.298555,2.718168,3.251648
3.281894,3.298625,2.719780,3.252454
3.281879,3.298726,2.719780,3.253260
3.281874,3.298509,2.709304,3.252454
3.281818,3.298600,2.717363,3.252454
3.281858,3.298605,2.719780,3.255678
3.281874,3.298711,2.718168,3.257289
3.281808,3.298439,2.714139,3.252454
3.281793,3.298509,2.717363,3.254066
3.281818,3.298555,2.716557,3.251648
3.281853,3.298565,2.719780,3.250037
3.281682,3.298469,2.711722,3.248425
3.281793,3.298484,2.716557,3.250037
3.281803,3.298535,2.718974,3.256484
3.281853,3.298520,2.718974,3.248425
3.281647,3.298494,2.714139,3.252454
3.281813,3.298595,2.715751,3.255678
3.281768,3.298656,2.715751,3.252454
3.281496,3.298479,2.717363,3.252454
3.281667,3.298525,2.714139,3.248425
3.281763,3.298570,2.721392,3.252454
3.281732,3.298625,2.713333,3.255678
3.281586,3.298414,2.709304,3.249231
3.281581,3.298545,2.710916,3.252454
3.281662,3.298540,2.710916,3.251648
3.281753,3.298504,2.714139,3.257289
3.281486,3.298399,2.706081,3.248425
3.281672,3.298555,2.710110,3.256484
3.281561,3.298520,2.711722,3.250037
3.281546,3.298555,2.716557,3.248425
3.281476,3.298439,2.705275,3.248425
3.281556,3.298540,2.711722,3.249231
3.281531,3.298504,2.709304,3.249231
3.281410,3.298419,2.706081,3.249231
3.281445,3.298459,2.706081,3.248425
3.281531,3.298459,2.713333,3.250843
3.281501,3.298595,2.707692,3.255678
3.281405,3.298419,2.704469,3.250037
3.281430,3.298555,2.704469,3.250843
3.281385,3.298540,2.704469,3.248425
3.281566,3.298610,2.709304,3.251648
3.281314,3.298358,2.702051,3.247619
3.281395,3.298545,2.702857,3.248425
3.281390,3.298454,2.709304,3.248425
3.281400,3.298368,2.701245,3.250843
3.281214,3.298399,2.698828,3.248425
3.281309,3.298449,2.704469,3.247619
3.281365,3.298414,2.704469,3.248425
3.281163,3.298404,2.696410,3.247619
3.281189,3.298399,2.697216,3.248425
3.281405,3.298419,2.702857,3.248425
3.281264,3.298545,2.699634,3.251648
3.281279,3.298363,2.694798,3.247619
3.281178,3.298494,2.696410,3.248425
3.281269,3.298399,2.698828,3.248425
3.281405,3.298464,2.702051,3.248425
3.281219,3.298373,2.699634,3.245201
3.281249,3.298504,2.696410,3.252454
3.281254,3.298459,2.706081,3.249231
3.281229,3.298379,2.702051,3.251648
3.281143,3.298389,2.694798,3.244395
3.281365,3.298499,2.706081,3.250037
3.281259,3.298424,2.701245,3.250843
3.281229,3.298363,2.695604,3.253260
3.281098,3.298409,2.693187,3.248425
3.281274,3.298464,2.694798,3.248425
3.281214,3.298540,2.698022,3.250843
3.281083,3.298404,2.693993,3.248425
3.281108,3.298444,2.695604,3.248425
3.281153,3.298404,2.695604,3.249231
3.281224,3.298504,2.698022,3.249231
3.281093,3.298353,2.695604,3.246813
3.281093,3.298409,2.699634,3.249231
3.281108,3.298409,2.694798,3.248425
3.281183,3.298444,2.698022,3.256484
3.281073,3.298363,2.691575,3.246007
3.281138,3.298469,2.693187,3.254066
3.281108,3.298409,2.693993,3.247619
3.281138,3.298379,2.692381,3.250037
3.281002,3.298363,2.690769,3.246813
3.281083,3.298404,2.693187,3.247619
3.281063,3.298434,2.694798,3.248425
3.281017,3.298363,2.695604,3.247619
