3.286496,3.298534,2.866447,3.248425
3.286265,3.298393,2.860806,3.247619
3.286401,3.298463,2.868865,3.248425
3.286406,3.298468,2.867253,3.250843
3.286446,3.298398,2.863224,3.248425
3.286280,3.298428,2.860000,3.247619
3.286406,3.298504,2.864029,3.248425
3.286411,3.298609,2.865641,3.251648
3.286310,3.298433,2.853553,3.248425
3.286360,3.298468,2.864029,3.248425
3.286375,3.298514,2.867253,3.252454
3.286375,3.298529,2.864835,3.251648
3.286320,3.298388,2.865641,3.248425
3.286275,3.298478,2.858388,3.252454
3.286310,3.298448,2.862418,3.248425
3.286411,3.298458,2.864029,3.247619
3.286219,3.298378,2.855971,3.247619
3.286290,3.298443,2.861612,3.248425
3.286249,3.298438,2.862418,3.248425
3.286360,3.298363,2.860806,3.248425
3.286093,3.298398,2.853553,3.247619
3.286119,3.298423,2.862418,3.248425
3.286103,3.298428,2.855971,3.248425
3.285872,3.298337,2.852747,3.246813
3.285983,3.298368,2.851135,3.247619
3.286018,3.298398,2.852747,3.246813
3.285988,3.298489,2.853553,3.249231
3.285977,3.298332,2.848718,3.247619
3.285942,3.298413,2.850330,3.248425
3.286033,3.298403,2.851135,3.248425
3.286108,3.298458,2.856776,3.250843
3.285912,3.298252,2.848718,3.241172
3.285988,3.298353,2.849524,3.247619
3.285957,3.298378,2.851135,3.246813
3.285957,3.298342,2.848718,3.248425
3.285907,3.298368,2.850330,3.246813
3.286033,3.298413,2.857582,3.248425
3.285993,3.298378,2.848718,3.248425
3.285988,3.298342,2.856776,3.244395
3.285942,3.298388,2.847912,3.248425
3.285947,3.298383,2.848718,3.248425
3.286018,3.298478,2.855971,3.252454
3.285927,3.298358,2.848718,3.248425
3.286018,3.298468,2.852747,3.246813
3.286043,3.298423,2.852747,3.250843
3.286144,3.298438,2.858388,3.248425
3.285998,3.298312,2.850330,3.246813
3.286113,3.298438,2.848718,3.250037
3.286058,3.298393,2.859194,3.248425
3.286209,3.298342,2.860000,3.252454
3.285977,3.298408,2.851941,3.246813
3.286013,3.298398,2.860000,3.250843
3.286088,3.298423,2.854359,3.248425
3.286068,3.298378,2.852747,3.247619
3.286008,3.298388,2.851941,3.247619
3.286103,3.298438,2.857582,3.249231
3.286108,3.298529,2.854359,3.257289
3.286063,3.298368,2.855971,3.248425
3.286108,3.298428,2.851941,3.248425
3.286119,3.298423,2.855165,3.252454
3.286179,3.298443,2.856776,3.248425
3.285942,3.298358,2.852747,3.243590
3.285993,3.298413,2.851941,3.248425
3.286018,3.298408,2.851941,3.248425
3.286043,3.298363,2.855971,3.245201
3.285927,3.298337,2.849524,3.246813
3.285967,3.298373,2.851135,3.248425
3.285993,3.298383,2.851135,3.247619
3.286129,3.298348,2.848718,3.248425
3.285927,3.298378,2.847106,3.248425
3.286078,3.298408,2.848718,3.248425
3.285988,3.298494,2.849524,3.248425
3.285962,3.298378,2.849524,3.248425
3.285993,3.298408,2.853553,3.248425
3.286093,3.298418,2.855165,3.248425
3.286224,3.298463,2.860806,3.253260
3.286194,3.298408,2.859194,3.248425
3.286275,3.298564,2.863224,3.252454
3.286350,3.298463,2.864835,3.250843
3.286612,3.298599,2.869670,3.258901
3.286451,3.298433,2.868865,3.250843
3.286657,3.298609,2.872894,3.252454
3.286703,3.298670,2.872088,3.255678
3.286773,3.298554,2.877729,3.252454
3.286713,3.298670,2.875311,3.252454
3.286834,3.298776,2.882564,3.258901
3.286945,3.298791,2.882564,3.256484
3.287025,3.298685,2.889011,3.254872
3.287091,3.298750,2.888205,3.259707
3.287171,3.298771,2.893040,3.259707
3.287262,3.298801,2.889817,3.262930
3.287252,3.298680,2.889011,3.260513
3.287292,3.298766,2.889817,3.260513
3.287332,3.298791,2.894652,3.260513
3.287428,3.298801,2.899487,3.261319
3.287307,3.298730,2.890623,3.257289
3.287393,3.298750,2.894652,3.258901
3.287352,3.298791,2.893846,3.258901
3.287398,3.298801,2.893040,3.261319
3.287111,3.298730,2.883370,3.258095
3.287176,3.298745,2.889817,3.261319
3.287227,3.298786,2.891428,3.258901
3.287131,3.298700,2.890623,3.257289
3.287065,3.298745,2.883370,3.258901
3.287146,3.298685,2.888205,3.258901
3.287075,3.298776,2.883370,3.258901
3.286874,3.298655,2.881758,3.256484
3.286819,3.298680,2.881758,3.258901
3.286844,3.298715,2.878535,3.254066
3.286939,3.298715,2.883370,3.252454
3.286793,3.298509,2.878535,3.249231
3.286879,3.298700,2.876117,3.257289
3.286824,3.298635,2.874506,3.253260
3.286834,3.298529,2.881758,3.257289
3.286683,3.298589,2.872088,3.253260
3.286778,3.298655,2.874506,3.255678
3.286733,3.298625,2.875311,3.253260
3.286617,3.298554,2.878535,3.252454
3.286678,3.298604,2.872894,3.255678
3.286652,3.298614,2.868865,3.252454
3.286662,3.298685,2.874506,3.258095
3.286607,3.298529,2.871282,3.250037
3.286597,3.298594,2.872894,3.250037
3.286592,3.298519,2.871282,3.254066
3.286652,3.298630,2.874506,3.252454
3.286431,3.298418,2.870476,3.248425
3.286602,3.298509,2.872088,3.253260
3.286476,3.298559,2.868865,3.253260
3.286491,3.298564,2.870476,3.259707
3.286300,3.298453,2.863224,3.248425
3.286411,3.298614,2.870476,3.246813
3.286431,3.298489,2.869670,3.249231
3.286365,3.298453,2.865641,3.248425
3.286340,3.298448,2.863224,3.248425
3.286436,3.298473,2.857582,3.250843
3.286431,3.298645,2.865641,3.258901
3.286370,3.298458,2.864029,3.250037
3.286441,3.298529,2.866447,3.250037
3.286496,3.298504,2.865641,3.249231
3.286632,3.298534,2.870476,3.253260
3.286411,3.298408,2.866447,3.248425
3.286526,3.298584,2.870476,3.255678
3.286562,3.298574,2.868865,3.255678
3.286662,3.298604,2.870476,3.251648
3.286436,3.298468,2.865641,3.248425
3.286688,3.298514,2.874506,3.248425
3.286652,3.298584,2.872894,3.256484
3.286662,3.298514,2.874506,3.250037
3.286592,3.298564,2.867253,3.251648
3.286607,3.298640,2.874506,3.255678
3.286688,3.298725,2.872088,3.256484
3.286592,3.298589,2.873700,3.255678
3.286632,3.298614,2.872088,3.250843
3.286652,3.298584,2.873700,3.258901
3.286703,3.298705,2.873700,3.258901
3.286667,3.298554,2.873700,3.252454
3.286683,3.298645,2.874506,3.256484
3.286713,3.298635,2.876117,3.257289
3.286718,3.298589,2.876117,3.254066
3.286637,3.298554,2.872088,3.253260
3.286738,3.298589,2.874506,3.259707
3.286723,3.298670,2.873700,3.260513
3.286778,3.298579,2.873700,3.255678
3.286678,3.298660,2.872088,3.253260
3.286743,3.298700,2.875311,3.256484
3.286728,3.298710,2.874506,3.253260
3.286693,3.298569,2.871282,3.253260
3.286673,3.298609,2.872894,3.255678
3.286718,3.298700,2.872894,3.255678
3.286718,3.298710,2.873700,3.260513
3.286708,3.298539,2.874506,3.255678
3.286703,3.298700,2.873700,3.259707
3.286718,3.298685,2.874506,3.255678
3.286814,3.298695,2.876117,3.258095
3.286773,3.298594,2.872088,3.254066
3.286713,3.298710,2.876117,3.250843
3.286728,3.298665,2.874506,3.255678
3.286738,3.298655,2.878535,3.255678
3.286688,3.298640,2.872088,3.255678
3.286673,3.298680,2.874506,3.257289
3.286703,3.298715,2.874506,3.255678
3.286667,3.298579,2.882564,3.257289
3.286667,3.298650,2.870476,3.254872
3.286667,3.298655,2.872088,3.256484
3.286688,3.298750,2.874506,3.258901
3.286622,3.298609,2.872088,3.250843
3.286673,3.298705,2.874506,3.258901
3.286688,3.298665,2.873700,3.256484
3.286733,3.298755,2.876923,3.254066
3.286617,3.298509,2.874506,3.250037
3.286738,3.298650,2.874506,3.260513
3.286723,3.298685,2.874506,3.254066
3.286678,3.298519,2.876923,3.253260
3.286582,3.298609,2.872894,3.252454
3.286693,3.298660,2.869670,3.254872
3.286703,3.298715,2.875311,3.255678
3.286708,3.298609,2.869670,3.254066
3.286647,3.298630,2.873700,3.257289
3.286667,3.298695,2.874506,3.254066
3.286662,3.298720,2.872088,3.261319
3.286602,3.298549,2.869670,3.256484
3.286607,3.298670,2.873700,3.253260
3.286647,3.298630,2.872894,3.254066
3.286738,3.298655,2.877729,3.256484
3.286637,3.298544,2.870476,3.248425
3.286673,3.298675,2.872894,3.257289
3.286637,3.298670,2.874506,3.255678
3.286678,3.298599,2.874506,3.252454
3.286521,3.298604,2.868865,3.254066
3.286713,3.298660,2.868865,3.256484
3.286657,3.298670,2.870476,3.254872
3.286562,3.298640,2.874506,3.249231
3.286607,3.298650,2.869670,3.253260
3.286632,3.298710,2.874506,3.253260
3.286662,3.298766,2.874506,3.260513
3.286592,3.298554,2.868865,3.254066
3.286673,3.298730,2.872088,3.254872
3.286703,3.298710,2.874506,3.259707
3.286778,3.298675,2.874506,3.257289
3.286683,3.298549,2.872894,3.253260
3.286688,3.298690,2.871282,3.261319
3.286678,3.298715,2.872894,3.258095
3.286733,3.298680,2.876923,3.261319
3.286577,3.298589,2.868865,3.255678
3.286683,3.298695,2.874506,3.259707
3.286652,3.298680,2.873700,3.256484
3.286703,3.298635,2.874506,3.248425
3.286506,3.298660,2.868865,3.255678
3.286642,3.298670,2.872088,3.258901
3.286642,3.298730,2.872894,3.258901
3.286567,3.298645,2.867253,3.254066
3.286562,3.298660,2.866447,3.257289
3.286587,3.298635,2.869670,3.255678
3.286683,3.298735,2.869670,3.258095
3.286532,3.298534,2.867253,3.254066
3.286537,3.298725,2.869670,3.254872
3.286572,3.298690,2.869670,3.255678
3.286652,3.298635,2.872894,3.250843
3.286506,3.298569,2.870476,3.253260
3.286597,3.298750,2.872894,3.260513
3.286627,3.298715,2.874506,3.257289
3.286612,3.298589,2.874506,3.256484
3.286572,3.298685,2.867253,3.253260
3.286667,3.298690,2.874506,3.258901
3.286768,3.298796,2.875311,3.258095
3.286834,3.298750,2.874506,3.258901
3.286803,3.298766,2.875311,3.257289
3.287171,3.298796,2.880147,3.261319
3.287247,3.298897,2.889817,3.261319
3.287257,3.298755,2.893040,3.261319
3.287368,3.298866,2.895458,3.264542
3.287473,3.298866,2.897876,3.261319
3.287574,3.298952,2.900293,3.259707
3.287509,3.298796,2.900293,3.260513
3.287624,3.298937,2.904322,3.265348
3.287740,3.299002,2.903517,3.263736
3.287765,3.298997,2.913993,3.260513
3.287715,3.298932,2.906740,3.265348
3.287881,3.299012,2.914798,3.269377
3.287947,3.299002,2.913187,3.268571
3.287811,3.298972,2.908352,3.264542
3.287861,3.298992,2.909963,3.266154
3.287947,3.299002,2.918828,3.266960
3.287932,3.299113,2.912381,3.272601
3.287836,3.298937,2.909963,3.261319
3.287881,3.299027,2.911575,3.270183
3.287947,3.298997,2.910769,3.265348
3.287937,3.298962,2.915604,3.270183
3.287771,3.298891,2.905934,3.262125
3.287907,3.299043,2.908352,3.268571
3.287791,3.298977,2.908352,3.266960
3.287856,3.298866,2.912381,3.269377
3.287725,3.298922,2.905934,3.262125
3.287816,3.298902,2.907546,3.269377
3.287740,3.298952,2.909158,3.265348
3.287760,3.298891,2.915604,3.263736
3.287705,3.298947,2.907546,3.263736
3.287735,3.298886,2.905934,3.266960
3.287750,3.299088,2.909158,3.271795
3.287700,3.298886,2.900293,3.264542
3.287685,3.299012,2.905934,3.263736
3.287705,3.298967,2.907546,3.265348
3.287811,3.299002,2.909158,3.266154
3.287655,3.298811,2.905934,3.261319
3.287715,3.298982,2.902711,3.269377
3.287614,3.298922,2.903517,3.267766
3.287660,3.298902,2.904322,3.263736
3.287564,3.298871,2.904322,3.262930
3.287655,3.298866,2.903517,3.266960
3.287604,3.298917,2.903517,3.263736
3.287725,3.298841,2.904322,3.262125
3.287524,3.298886,2.900293,3.262125
3.287705,3.298856,2.904322,3.265348
3.287549,3.299038,2.903517,3.261319
3.287504,3.298811,2.904322,3.262125
3.287529,3.298942,2.900293,3.261319
3.287524,3.298861,2.900293,3.263736
3.287640,3.298881,2.901099,3.262930
3.287483,3.298801,2.900293,3.260513
3.287499,3.298851,2.898681,3.266154
3.287539,3.298927,2.900293,3.263736
3.287584,3.298947,2.900293,3.261319
3.287483,3.298806,2.900293,3.263736
3.287524,3.298962,2.901905,3.262125
3.287524,3.298907,2.900293,3.265348
3.287549,3.298816,2.901905,3.261319
3.287478,3.298831,2.895458,3.261319
3.287524,3.298876,2.900293,3.262125
3.287519,3.298992,2.900293,3.265348
3.287509,3.298856,2.895458,3.262125
3.287509,3.298876,2.900293,3.261319
3.287524,3.298861,2.899487,3.261319
3.287579,3.298902,2.901099,3.266154
3.287504,3.298791,2.900293,3.262930
3.287514,3.298957,2.902711,3.266154
3.287609,3.298952,2.901099,3.261319
3.287650,3.298927,2.904322,3.268571
3.287514,3.298836,2.901905,3.262125
3.287554,3.298987,2.907546,3.265348
3.287645,3.299017,2.909158,3.266960
3.287675,3.298821,2.905934,3.261319
3.287519,3.298902,2.901905,3.262930
3.287720,3.298967,2.902711,3.264542
3.287650,3.299002,2.902711,3.264542
3.287569,3.298886,2.898681,3.262930
3.287554,3.298871,2.900293,3.262930
3.287629,3.298881,2.905128,3.263736
3.287564,3.299002,2.902711,3.266960
3.287529,3.298871,2.900293,3.261319
3.287554,3.298962,2.901099,3.266154
3.287614,3.298942,2.901905,3.268571
3.287740,3.298917,2.905128,3.272601
3.287549,3.298826,2.901099,3.261319
3.287710,3.298967,2.907546,3.266154
3.287599,3.298992,2.902711,3.268571
3.287735,3.298856,2.901099,3.259707
3.287509,3.298851,2.900293,3.261319
3.287685,3.298957,2.904322,3.262930
3.287609,3.298962,2.901099,3.266154
3.287629,3.298866,2.900293,3.262930
3.287524,3.298876,2.900293,3.264542
3.287609,3.298866,2.902711,3.262930
3.287524,3.298982,2.900293,3.268571
3.287509,3.298796,2.900293,3.266154
3.287488,3.298902,2.899487,3.266960
3.287458,3.298881,2.901099,3.261319
3.287584,3.298922,2.901099,3.266960
3.287418,3.298796,2.900293,3.262125
3.287473,3.298881,2.900293,3.262125
3.287494,3.298876,2.900293,3.263736
3.287483,3.298826,2.901099,3.269377
3.287378,3.298826,2.897876,3.261319
3.287524,3.298876,2.900293,3.270183
3.287478,3.298922,2.897876,3.264542
3.287463,3.298816,2.899487,3.261319
3.287438,3.298841,2.897876,3.261319
3.287534,3.298897,2.904322,3.261319
3.287463,3.298982,2.900293,3.268571
3.287398,3.298776,2.894652,3.260513
3.287378,3.298907,2.894652,3.261319
3.287373,3.298816,2.894652,3.261319
3.287433,3.298881,2.895458,3.261319
3.287106,3.298720,2.884176,3.258901
3.287141,3.298831,2.882564,3.262125
3.286990,3.298801,2.883370,3.261319
3.287131,3.298776,2.884176,3.256484
3.286728,3.298685,2.876923,3.257289
3.286683,3.298710,2.874506,3.256484
3.286708,3.298720,2.874506,3.255678
3.286607,3.298619,2.873700,3.256484
3.286481,3.298614,2.864029,3.258901
3.286451,3.298579,2.864029,3.255678
3.286411,3.298735,2.869670,3.253260
3.286375,3.298483,2.861612,3.249231
3.286244,3.298589,2.862418,3.252454
3.286310,3.298529,2.860000,3.250843
3.286401,3.298635,2.862418,3.254066
3.286209,3.298433,2.858388,3.248425
3.286224,3.298504,2.857582,3.255678
3.286234,3.298539,2.862418,3.250843
3.286275,3.298569,2.859194,3.251648
3.286083,3.298478,2.855165,3.248425
3.286194,3.298670,2.851135,3.248425
3.286189,3.298554,2.859194,3.252454
3.286169,3.298428,2.866447,3.248425
3.286098,3.298478,2.852747,3.248425
3.286189,3.298554,2.850330,3.253260
3.286199,3.298645,2.857582,3.253260
3.286108,3.298463,2.851941,3.250843
3.286234,3.298489,2.854359,3.250037
3.286229,3.298584,2.856776,3.250843
3.286275,3.298609,2.856776,3.252454
3.286169,3.298423,2.855165,3.248425
3.286189,3.298519,2.854359,3.250843
3.286189,3.298524,2.859194,3.253260
3.286224,3.298509,2.859194,3.250843
3.286043,3.298438,2.856776,3.248425
3.286234,3.298539,2.859194,3.250037
3.286189,3.298564,2.855165,3.253260
3.286194,3.298453,2.855971,3.249231
3.286083,3.298579,2.855971,3.252454
3.286275,3.298549,2.858388,3.255678
3.286270,3.298670,2.860806,3.253260
3.286244,3.298524,2.853553,3.252454
3.286270,3.298549,2.861612,3.253260
3.286320,3.298564,2.860806,3.251648
3.286360,3.298705,2.863224,3.258901
3.286345,3.298504,2.861612,3.252454
3.286426,3.298670,2.868865,3.253260
3.286481,3.298715,2.865641,3.255678
3.286667,3.298665,2.873700,3.260513
3.286501,3.298604,2.869670,3.253260
3.286657,3.298705,2.874506,3.261319
3.286703,3.298766,2.872894,3.258901
3.286874,3.298766,2.877729,3.260513
3.286708,3.298755,2.874506,3.258095
3.287055,3.298816,2.878535,3.260513
3.287096,3.298811,2.882564,3.260513
3.287075,3.298796,2.900293,3.261319
3.287332,3.298866,2.891428,3.261319
3.287468,3.298932,2.897876,3.266154
3.287554,3.299098,2.901099,3.270183
3.287635,3.298897,2.905934,3.266154
3.287811,3.299113,2.909963,3.270183
3.287901,3.299113,2.913993,3.272601
3.288219,3.299224,2.920439,3.272601
3.288098,3.299002,2.920439,3.266154
3.288325,3.299194,2.924469,3.275824
3.288320,3.299204,2.926081,3.274212
3.288481,3.299264,2.930916,3.280659
3.288345,3.299249,2.926081,3.274212
3.288516,3.299294,2.934945,3.275018
3.288581,3.299350,2.934945,3.276630
3.288556,3.299289,2.940586,3.277436
3.288667,3.299330,2.933333,3.278242
3.288672,3.299435,2.934945,3.279048
3.288727,3.299561,2.938974,3.284689
3.288717,3.299430,2.937363,3.281465
3.288743,3.299511,2.938974,3.280659
3.288813,3.299516,2.943810,3.280659
3.288964,3.299526,2.944615,3.287106
3.288758,3.299350,2.939780,3.281465
3.288904,3.299592,2.941392,3.284689
3.288929,3.299546,2.939780,3.283883
3.288954,3.299551,2.947033,3.282271
3.288758,3.299435,2.938974,3.281465
3.288874,3.299531,2.941392,3.281465
3.288894,3.299556,2.946227,3.284689
3.289020,3.299511,2.938974,3.284689
3.288828,3.299511,2.942198,3.284689
3.288914,3.299571,2.948645,3.283883
3.288954,3.299627,2.944615,3.287106
3.288783,3.299461,2.939780,3.283077
3.288848,3.299566,2.939780,3.284689
3.288929,3.299556,2.946227,3.287106
3.289060,3.299597,2.946227,3.285495
3.288874,3.299471,2.940586,3.282271
3.288914,3.299576,2.943810,3.284689
3.288989,3.299587,2.949450,3.286300
3.289065,3.299451,2.947839,3.287106
3.288914,3.299511,2.946227,3.283077
3.289020,3.299627,2.953480,3.287106
3.289060,3.299592,2.950256,3.286300
3.289115,3.299551,2.952674,3.281465
3.288909,3.299526,2.947839,3.284689
3.288984,3.299597,2.947033,3.287106
3.289025,3.299667,2.948645,3.286300
3.288884,3.299566,2.941392,3.283883
3.289015,3.299561,2.943004,3.284689
3.288984,3.299581,2.946227,3.286300
3.289055,3.299612,2.947839,3.287106
3.288858,3.299425,2.940586,3.286300
3.288889,3.299587,2.944615,3.284689
3.288813,3.299597,2.942198,3.283077
3.288924,3.299571,2.946227,3.287106
3.288853,3.299486,2.943004,3.282271
3.288929,3.299597,2.944615,3.283077
3.288793,3.299556,2.942198,3.283077
3.288853,3.299415,2.941392,3.284689
3.288662,3.299476,2.935751,3.279854
3.288727,3.299481,2.936557,3.283077
3.288662,3.299516,2.936557,3.283077
3.288501,3.299415,2.934945,3.279048
3.288506,3.299410,2.934139,3.284689
3.288571,3.299456,2.934945,3.281465
3.288541,3.299501,2.931722,3.281465
3.288400,3.299345,2.927692,3.283883
3.288360,3.299395,2.931722,3.283077
3.288390,3.299345,2.925275,3.276630
3.288430,3.299415,2.928498,3.282271
3.288289,3.299209,2.926081,3.275824
3.288325,3.299390,2.926081,3.274212
3.288279,3.299279,2.924469,3.275824
3.288194,3.299254,2.921245,3.279854
3.288012,3.299189,2.920439,3.272601
3.288168,3.299294,2.918828,3.271795
3.288204,3.299249,2.920439,3.274212
3.287947,3.299184,2.922857,3.272601
3.288002,3.299174,2.917216,3.275824
3.288103,3.299224,2.917216,3.274212
3.288007,3.299315,2.918022,3.278242
3.287957,3.299118,2.910769,3.270183
3.287987,3.299269,2.913993,3.275824
3.287962,3.299199,2.913993,3.271795
3.288042,3.299279,2.920439,3.272601
3.287907,3.299058,2.912381,3.272601
3.288007,3.299224,2.912381,3.278242
3.287907,3.299184,2.910769,3.270989
3.287907,3.299219,2.911575,3.272601
3.287776,3.299128,2.910769,3.271795
3.287876,3.299158,2.909158,3.273407
3.287856,3.299179,2.911575,3.272601
3.287846,3.299083,2.914798,3.268571
3.287791,3.299128,2.907546,3.267766
3.287881,3.299123,2.917216,3.272601
3.287740,3.299234,2.907546,3.275018
3.287629,3.299043,2.904322,3.266960
3.287599,3.299143,2.900293,3.266154
3.287539,3.299048,2.901905,3.268571
3.287589,3.299093,2.900293,3.270183
3.287403,3.298846,2.898681,3.264542
3.287363,3.299017,2.897876,3.264542
3.287232,3.298932,2.897876,3.264542
3.287327,3.298942,2.894652,3.271795
3.286975,3.298750,2.880147,3.263736
3.287015,3.298876,2.892234,3.262930
3.286929,3.298861,2.889011,3.265348
3.287267,3.298816,2.881758,3.253260
3.286763,3.298781,2.878535,3.255678
3.286829,3.298861,2.883370,3.261319
3.286803,3.299017,2.874506,3.259707
3.286723,3.298745,2.874506,3.261319
3.286688,3.298886,2.874506,3.253260
3.286718,3.298907,2.868865,3.261319
3.286683,3.298776,2.869670,3.261319
3.286632,3.298685,2.875311,3.258095
3.286632,3.298856,2.867253,3.258095
3.286547,3.298801,2.873700,3.262930
3.286572,3.298710,2.874506,3.254066
3.286416,3.298645,2.866447,3.250843
3.286411,3.298549,2.871282,3.255678
3.286350,3.298720,2.860000,3.256484
3.286390,3.298529,2.874506,3.254066
3.286224,3.298655,2.855165,3.255678
3.286229,3.298720,2.865641,3.255678
3.286295,3.298781,2.859194,3.259707
3.286234,3.298614,2.849524,3.257289
3.286194,3.298670,2.857582,3.254066
3.286290,3.298665,2.860806,3.255678
3.286345,3.298761,2.863224,3.254872
3.286073,3.298599,2.862418,3.254066
3.286350,3.298524,2.855971,3.255678
3.286194,3.298710,2.853553,3.260513
3.286416,3.298665,2.864835,3.254066
3.286239,3.298544,2.861612,3.252454
3.286265,3.298766,2.865641,3.253260
3.286275,3.298695,2.860000,3.259707
3.286335,3.298579,2.855971,3.251648
3.286144,3.298625,2.856776,3.256484
3.286249,3.298720,2.859194,3.252454
3.286290,3.298740,2.860806,3.261319
3.286285,3.298665,2.856776,3.256484
3.286209,3.298670,2.858388,3.257289
3.286300,3.298720,2.857582,3.258095
3.286310,3.298750,2.860806,3.260513
3.286234,3.298660,2.851135,3.250843
3.286265,3.298725,2.861612,3.258901
3.286290,3.298690,2.854359,3.260513
3.286365,3.298740,2.865641,3.256484
3.286078,3.298564,2.864029,3.250037
3.286320,3.298695,2.864029,3.253260
3.286265,3.298710,2.859194,3.260513
3.286335,3.298544,2.860806,3.255678
3.286179,3.298640,2.855971,3.253260
3.286280,3.298680,2.858388,3.256484
3.286295,3.298710,2.864029,3.255678
3.286169,3.298660,2.856776,3.256484
3.286214,3.298660,2.859194,3.257289
3.286249,3.298705,2.852747,3.256484
3.286275,3.298776,2.860000,3.261319
3.286204,3.298650,2.858388,3.255678
3.286275,3.298690,2.856776,3.259707
3.286254,3.298690,2.862418,3.258095
3.286340,3.298745,2.867253,3.253260
3.286184,3.298544,2.856776,3.252454
3.286315,3.298665,2.855971,3.254066
3.286199,3.298695,2.856776,3.258901
3.286310,3.298549,2.859194,3.261319
3.286113,3.298655,2.856776,3.255678
3.286476,3.298695,2.860000,3.259707
3.286375,3.298730,2.862418,3.259707
3.286562,3.298685,2.864029,3.255678
3.286521,3.298781,2.866447,3.258901
3.286642,3.298791,2.872894,3.260513
3.286713,3.298856,2.874506,3.262930
3.286703,3.298766,2.874506,3.259707
3.286773,3.298866,2.876117,3.261319
3.286859,3.298846,2.883370,3.261319
3.287141,3.298932,2.883370,3.265348
3.286955,3.298771,2.888205,3.260513
3.287141,3.298846,2.891428,3.266960
3.287267,3.298881,2.891428,3.262930
3.287332,3.299048,2.894652,3.260513
3.287126,3.298831,2.884176,3.261319
3.287342,3.298866,2.894652,3.266154
3.287368,3.298957,2.894652,3.262930
3.287388,3.298856,2.899487,3.261319
3.287227,3.298866,2.891428,3.262125
3.287317,3.298866,2.897070,3.265348
3.287383,3.299073,2.896264,3.268571
3.287171,3.298836,2.888205,3.261319
3.287347,3.298912,2.889817,3.262930
3.287398,3.298932,2.894652,3.262125
3.287473,3.299053,2.899487,3.270183
3.287312,3.298831,2.894652,3.260513
3.287322,3.298977,2.897876,3.261319
3.287277,3.298881,2.897876,3.262125
3.287448,3.299043,2.896264,3.261319
3.287196,3.298806,2.894652,3.261319
3.287302,3.298917,2.896264,3.261319
3.287363,3.298902,2.891428,3.262930
3.287418,3.298821,2.897876,3.258095
3.287186,3.298881,2.889817,3.261319
3.287373,3.298876,2.881758,3.261319
3.287282,3.298997,2.889817,3.268571
3.287206,3.298811,2.889817,3.261319
3.287176,3.298846,2.891428,3.263736
3.287196,3.298836,2.889817,3.261319
3.287222,3.298947,2.889817,3.263736
3.287045,3.298771,2.880147,3.257289
3.287035,3.298851,2.882564,3.268571
3.287045,3.298791,2.881758,3.261319
3.287191,3.298856,2.891428,3.263736
3.286859,3.298766,2.889011,3.260513
3.286924,3.298821,2.889817,3.261319
3.286909,3.298831,2.889817,3.261319
3.286914,3.298786,2.880147,3.261319
3.286753,3.298776,2.875311,3.261319
3.286809,3.298796,2.881758,3.261319
3.286854,3.298816,2.878535,3.261319
3.286829,3.298791,2.872894,3.259707
3.286738,3.298755,2.876923,3.261319
3.286854,3.298796,2.882564,3.261319
3.286839,3.298866,2.880147,3.265348
3.286763,3.298740,2.876117,3.260513
3.286773,3.298806,2.876117,3.261319
3.286839,3.298791,2.878535,3.261319
3.286889,3.298912,2.881758,3.261319
3.286723,3.298740,2.874506,3.259707
3.286869,3.298761,2.881758,3.258901
3.286824,3.298791,2.878535,3.261319
3.287030,3.298755,2.888205,3.258095
3.286718,3.298786,2.874506,3.260513
3.286899,3.298816,2.878535,3.261319
3.286783,3.298831,2.876923,3.261319
3.286763,3.298771,2.882564,3.258901
3.286708,3.298786,2.878535,3.260513
3.286879,3.298806,2.876923,3.262930
3.286849,3.298886,2.878535,3.263736
3.286788,3.298786,2.874506,3.258095
3.286803,3.298851,2.876117,3.261319
3.286809,3.298816,2.879341,3.261319
3.287065,3.298846,2.888205,3.266154
3.286793,3.298740,2.876923,3.261319
3.286924,3.298836,2.876923,3.261319
3.286849,3.298831,2.878535,3.261319
3.286924,3.298811,2.881758,3.266154
3.286733,3.298801,2.876117,3.258901
3.286819,3.298811,2.876923,3.261319
3.286839,3.298811,2.880147,3.261319
3.286864,3.298791,2.874506,3.259707
3.286743,3.298791,2.874506,3.261319
3.286899,3.298796,2.874506,3.261319
3.286748,3.298871,2.874506,3.265348
3.286703,3.298750,2.874506,3.259707
3.286718,3.298796,2.873700,3.260513
3.286693,3.298776,2.873700,3.257289
3.286718,3.298766,2.874506,3.261319
3.286456,3.298604,2.868865,3.254066
3.286582,3.298720,2.865641,3.257289
3.286547,3.298705,2.864835,3.256484
3.286436,3.298645,2.866447,3.252454
3.286214,3.298584,2.860806,3.251648
3.286360,3.298695,2.861612,3.254066
3.286234,3.298655,2.859194,3.257289
3.286234,3.298559,2.862418,3.253260
3.286144,3.298609,2.857582,3.255678
3.286320,3.298630,2.852747,3.255678
3.286164,3.298755,2.855971,3.257289
3.285988,3.298468,2.848718,3.253260
3.286003,3.298569,2.852747,3.253260
3.286023,3.298614,2.855971,3.252454
3.286038,3.298640,2.851135,3.255678
3.285897,3.298403,2.848718,3.248425
3.285882,3.298549,2.847106,3.250843
3.285902,3.298504,2.847106,3.251648
3.285902,3.298463,2.850330,3.260513
3.285731,3.298413,2.844689,3.248425
3.285852,3.298534,2.843077,3.248425
3.285741,3.298468,2.841465,3.248425
3.285766,3.298408,2.847912,3.247619
3.285635,3.298443,2.837436,3.248425
3.285700,3.298428,2.843077,3.250843
3.285650,3.298509,2.841465,3.253260
3.285620,3.298403,2.836630,3.246813
3.285595,3.298383,2.837436,3.248425
3.285665,3.298413,2.837436,3.252454
3.285635,3.298453,2.838242,3.250037
3.285585,3.298378,2.836630,3.248425
3.285585,3.298438,2.837436,3.249231
3.285534,3.298403,2.836630,3.248425
3.285640,3.298383,2.843077,3.253260
3.285454,3.298342,2.835824,3.245201
3.285519,3.298418,2.836630,3.248425
3.285499,3.298373,2.836630,3.249231
3.285534,3.298342,2.835824,3.244395
3.285403,3.298322,2.830183,3.246007
3.285413,3.298373,2.835824,3.246813
3.285428,3.298363,2.835018,3.246813
3.285308,3.298297,2.830989,3.246007
3.285323,3.298327,2.830183,3.246007
3.285353,3.298327,2.828571,3.248425
3.285328,3.298413,2.828571,3.248425
3.285328,3.298322,2.830183,3.246813
3.285252,3.298363,2.830183,3.247619
3.285378,3.298363,2.830183,3.246007
3.285434,3.298348,2.833407,3.248425
3.285212,3.298252,2.826154,3.240366
3.285328,3.298348,2.833407,3.250843
3.285262,3.298317,2.827765,3.240366
3.285197,3.298186,2.825348,3.235531
3.285076,3.298212,2.820513,3.239560
3.285167,3.298302,2.825348,3.243590
3.285126,3.298302,2.826154,3.243590
3.285021,3.298247,2.826960,3.240366
3.285071,3.298242,2.822124,3.240366
3.285081,3.298247,2.818095,3.243590
3.285091,3.298332,2.822124,3.246813
3.285005,3.298141,2.818901,3.241172
3.284990,3.298212,2.817289,3.242784
3.284965,3.298217,2.822930,3.246007
3.285000,3.298232,2.822930,3.238755
3.284794,3.298000,2.811648,3.236337
3.284804,3.298191,2.814066,3.244395
3.284728,3.298106,2.807619,3.237949
3.284754,3.298015,2.814066,3.239560
3.284608,3.298060,2.807619,3.235531
3.284708,3.298040,2.811648,3.239560
3.284628,3.298111,2.812454,3.236337
3.284613,3.298030,2.812454,3.235531
3.284542,3.298076,2.806813,3.235531
3.284613,3.298045,2.814066,3.237143
3.284663,3.298222,2.808425,3.244395
3.284653,3.298015,2.814872,3.236337
3.284643,3.298096,2.808425,3.237143
3.284683,3.298111,2.807619,3.237143
3.284809,3.298222,2.813260,3.246007
3.284613,3.297995,2.810843,3.236337
3.284713,3.298060,2.809231,3.240366
3.284628,3.298035,2.806813,3.242784
3.284789,3.298020,2.813260,3.235531
3.284683,3.298025,2.809231,3.235531
3.284839,3.298191,2.814872,3.233919
3.284874,3.298161,2.817289,3.241172
3.285015,3.298070,2.822930,3.239560
3.285000,3.298156,2.817289,3.238755
3.285111,3.298277,2.820513,3.243590
3.285287,3.298383,2.826960,3.246813
3.285303,3.298252,2.822930,3.244395
3.285418,3.298363,2.830989,3.244395
3.285539,3.298383,2.836630,3.246813
3.285700,3.298463,2.840659,3.250843
3.285615,3.298337,2.841465,3.243590
3.285706,3.298448,2.842271,3.248425
3.285877,3.298484,2.848718,3.250843
3.285937,3.298448,2.848718,3.251648
3.285867,3.298398,2.848718,3.248425
3.286003,3.298509,2.851135,3.250037
3.285993,3.298514,2.849524,3.250843
3.286154,3.298388,2.860000,3.249231
3.285957,3.298443,2.848718,3.249231
3.286038,3.298534,2.859194,3.253260
3.286119,3.298655,2.853553,3.250037
3.285897,3.298514,2.848718,3.249231
3.285993,3.298484,2.853553,3.252454
3.285983,3.298509,2.855971,3.250843
3.286018,3.298630,2.851135,3.252454
3.285942,3.298383,2.851135,3.248425
3.285937,3.298478,2.848718,3.252454
3.285927,3.298468,2.848718,3.248425
3.285957,3.298494,2.852747,3.252454
3.285786,3.298342,2.843883,3.248425
3.285892,3.298388,2.849524,3.252454
3.285862,3.298423,2.843077,3.248425
3.285862,3.298348,2.848718,3.246007
3.285544,3.298388,2.838242,3.244395
3.285751,3.298398,2.846300,3.248425
3.285670,3.298393,2.839048,3.246813
3.285675,3.298312,2.835824,3.246813
3.285524,3.298342,2.836630,3.246007
3.285554,3.298373,2.837436,3.247619
3.285519,3.298398,2.837436,3.248425
3.285484,3.298287,2.835824,3.245201
3.285494,3.298373,2.835824,3.246007
3.285504,3.298348,2.835824,3.247619
3.285549,3.298368,2.837436,3.246007
3.285439,3.298206,2.835824,3.239560
3.285519,3.298348,2.833407,3.247619
3.285454,3.298342,2.833407,3.247619
3.285524,3.298217,2.836630,3.244395
3.285227,3.298201,2.826154,3.239560
3.285232,3.298287,2.823736,3.241172
3.285242,3.298257,2.830183,3.247619
3.285287,3.298136,2.835018,3.237143
3.285101,3.298196,2.822930,3.239560
3.285106,3.298242,2.821319,3.241172
3.285091,3.298282,2.822930,3.245201
3.284990,3.298101,2.821319,3.235531
3.284985,3.298186,2.821319,3.240366
3.285015,3.298171,2.821319,3.238755
3.285086,3.298282,2.823736,3.239560
3.284925,3.297985,2.818095,3.235531
3.285056,3.298146,2.820513,3.238755
3.284930,3.298171,2.820513,3.237143
3.285036,3.298161,2.822930,3.236337
3.284839,3.298030,2.814066,3.235531
3.284900,3.298121,2.815678,3.238755
3.284945,3.298126,2.821319,3.237949
3.284844,3.298055,2.810843,3.236337
3.284814,3.298106,2.814872,3.237949
3.284915,3.298126,2.821319,3.237949
3.284950,3.298247,2.818095,3.247619
3.284920,3.298106,2.815678,3.235531
3.284925,3.298121,2.819707,3.237143
3.284990,3.298161,2.818095,3.241172
3.285051,3.298146,2.819707,3.240366
3.284839,3.298035,2.814872,3.234725
3.284849,3.298081,2.812454,3.235531
3.284849,3.298035,2.817289,3.236337
3.284895,3.298035,2.821319,3.235531
3.284784,3.298020,2.817289,3.233919
3.284849,3.298126,2.814066,3.239560
3.284814,3.298055,2.814066,3.238755
3.284834,3.298005,2.811648,3.235531
3.284673,3.298035,2.810843,3.235531
3.284784,3.298076,2.804396,3.235531
3.284759,3.298191,2.810037,3.237949
3.284613,3.298030,2.814066,3.236337
3.284668,3.298040,2.807619,3.235531
3.284668,3.298005,2.810843,3.233114
3.284678,3.298040,2.808425,3.238755
3.284532,3.297940,2.806007,3.233114
3.284582,3.298050,2.805202,3.235531
3.284562,3.297985,2.806813,3.234725
3.284597,3.297970,2.810843,3.238755
3.284336,3.297909,2.798755,3.233114
3.284527,3.297975,2.801172,3.234725
3.284351,3.297985,2.801978,3.235531
3.284361,3.297940,2.797949,3.233919
3.284265,3.297909,2.797143,3.234725
3.284320,3.297960,2.798755,3.233919
3.284295,3.298030,2.797143,3.233919
3.284205,3.297919,2.789084,3.233919
3.284240,3.297899,2.797143,3.230696
3.284250,3.297924,2.797143,3.233919
3.284285,3.297985,2.796337,3.233919
3.284245,3.297894,2.797143,3.227473
3.284245,3.297990,2.797143,3.233114
3.284295,3.297965,2.793919,3.231502
3.284346,3.297985,2.797949,3.229890
3.284235,3.297849,2.798755,3.231502
3.284295,3.297945,2.797143,3.230696
3.284290,3.297929,2.796337,3.231502
3.284154,3.297909,2.794725,3.225861
3.284119,3.297894,2.791502,3.231502
3.284174,3.297894,2.788278,3.232308
3.284114,3.297884,2.793113,3.229890
3.283963,3.297799,2.795531,3.226667
3.283887,3.297809,2.783443,3.229890
3.283923,3.297793,2.784249,3.228278
3.283912,3.297914,2.785055,3.233114
3.283822,3.297773,2.782637,3.224249
3.283802,3.297854,2.782637,3.231502
3.283756,3.297718,2.780220,3.222637
3.283852,3.297743,2.784249,3.225861
3.283701,3.297622,2.784249,3.221026
3.283756,3.297758,2.779414,3.222637
3.283776,3.297763,2.774579,3.228278
3.283666,3.297622,2.781832,3.223443
3.283550,3.297632,2.775385,3.223443
3.283711,3.297668,2.777802,3.225055
3.283585,3.297693,2.775385,3.224249
3.283610,3.297602,2.776191,3.222637
3.283540,3.297602,2.772967,3.222637
3.283625,3.297663,2.782637,3.226667
3.283575,3.297758,2.771355,3.229890
3.283484,3.297622,2.769744,3.220220
3.283469,3.297683,2.770550,3.221832
3.283469,3.297582,2.769744,3.223443
3.283510,3.297607,2.770550,3.225861
3.283384,3.297466,2.767326,3.215385
3.283424,3.297587,2.770550,3.221026
3.283328,3.297617,2.770550,3.223443
3.283389,3.297411,2.768132,3.216996
3.283157,3.297456,2.760073,3.217802
3.283328,3.297547,2.765714,3.219414
3.283308,3.297557,2.766520,3.216996
3.283157,3.297476,2.758461,3.217802
3.283132,3.297501,2.760073,3.216996
3.283197,3.297552,2.760879,3.218608
3.283167,3.297663,2.764102,3.226667
3.283112,3.297486,2.757656,3.217802
3.283107,3.297537,2.758461,3.221832
3.283177,3.297547,2.760073,3.215385
3.283258,3.297557,2.759267,3.223443
3.283066,3.297365,2.757656,3.214579
3.283107,3.297471,2.760073,3.218608
3.283051,3.297522,2.760879,3.216996
3.283187,3.297562,2.760879,3.220220
3.282925,3.297375,2.752820,3.217802
3.283086,3.297522,2.764102,3.216996
3.283102,3.297491,2.762491,3.217802
3.283233,3.297391,2.761685,3.220220
3.282950,3.297476,2.753626,3.220220
3.283066,3.297532,2.757656,3.218608
3.283076,3.297572,2.759267,3.219414
3.282905,3.297396,2.756044,3.216996
3.282935,3.297466,2.754432,3.215385
3.282950,3.297466,2.753626,3.214579
3.283026,3.297496,2.756850,3.218608
3.282870,3.297355,2.747985,3.209743
3.282860,3.297486,2.755238,3.212967
3.282905,3.297431,2.754432,3.216191
3.282915,3.297451,2.752820,3.216191
3.282739,3.297350,2.750403,3.214579
3.282820,3.297396,2.756044,3.218608
3.282945,3.297466,2.755238,3.216996
3.282910,3.297441,2.754432,3.223443
3.282855,3.297416,2.754432,3.216191
3.283056,3.297516,2.765714,3.218608
3.283132,3.297602,2.761685,3.222637
3.283207,3.297537,2.760879,3.221026
3.283439,3.297642,2.769744,3.222637
3.283590,3.297688,2.775385,3.225861
3.283877,3.297889,2.781832,3.234725
3.283963,3.297824,2.784249,3.232308
3.284154,3.297970,2.795531,3.234725
3.284305,3.297985,2.799561,3.235531
3.284623,3.298106,2.807619,3.239560
3.284597,3.297995,2.813260,3.235531
3.284829,3.298222,2.814066,3.239560
3.285051,3.298206,2.822930,3.241978
3.285101,3.298126,2.824542,3.240366
3.285081,3.298227,2.822124,3.239560
3.285277,3.298267,2.823736,3.244395
3.285308,3.298327,2.828571,3.244395
3.285383,3.298287,2.830183,3.242784
3.285378,3.298302,2.830989,3.246813
3.285539,3.298368,2.835018,3.246007
3.285539,3.298408,2.835824,3.248425
3.285524,3.298358,2.836630,3.241978
3.285539,3.298413,2.835824,3.250843
3.285675,3.298393,2.840659,3.248425
3.285831,3.298514,2.843883,3.250843
3.285685,3.298337,2.845495,3.243590
3.285821,3.298468,2.841465,3.248425
3.285857,3.298453,2.843883,3.248425
3.285816,3.298363,2.848718,3.248425
3.285625,3.298373,2.839854,3.248425
3.285736,3.298398,2.843883,3.250843
3.285776,3.298413,2.843077,3.248425
3.285695,3.298393,2.847912,3.246813
3.285615,3.298378,2.839854,3.247619
3.285630,3.298413,2.847106,3.248425
3.285705,3.298509,2.844689,3.250843
3.285559,3.298373,2.843077,3.246813
3.285625,3.298453,2.840659,3.247619
3.285625,3.298378,2.839854,3.246007
3.285756,3.298388,2.837436,3.248425
3.285509,3.298327,2.835824,3.243590
3.285534,3.298368,2.837436,3.248425
3.285519,3.298358,2.835824,3.243590
3.285499,3.298287,2.835824,3.244395
3.285348,3.298267,2.830183,3.242784
3.285444,3.298348,2.835824,3.248425
3.285408,3.298363,2.834213,3.244395
3.285388,3.298262,2.835824,3.241172
3.285318,3.298277,2.831795,3.246007
3.285343,3.298317,2.835824,3.244395
3.285323,3.298388,2.830989,3.246813
3.285187,3.298151,2.828571,3.246007
3.285141,3.298252,2.824542,3.243590
3.285197,3.298272,2.826154,3.243590
3.285267,3.298297,2.823736,3.246007
3.285086,3.298116,2.822930,3.237949
3.285111,3.298247,2.822930,3.246007
3.285141,3.298217,2.822930,3.243590
3.285146,3.298317,2.826960,3.239560
3.285051,3.298121,2.820513,3.238755
3.285111,3.298287,2.824542,3.243590
3.285126,3.298237,2.822930,3.242784
3.285111,3.298076,2.824542,3.235531
3.285036,3.298186,2.822124,3.239560
3.285081,3.298222,2.827765,3.242784
3.285101,3.298337,2.825348,3.243590
3.285167,3.298196,2.830989,3.239560
3.285101,3.298206,2.822930,3.240366
3.285207,3.298307,2.823736,3.241978
3.285328,3.298368,2.830183,3.246813
3.285202,3.298166,2.822930,3.241172
3.285237,3.298332,2.827765,3.247619
3.285338,3.298332,2.830989,3.245201
3.285418,3.298332,2.835018,3.245201
3.285237,3.298222,2.831795,3.241172
3.285454,3.298358,2.835824,3.245201
3.285398,3.298358,2.832601,3.245201
3.285408,3.298287,2.830183,3.244395
3.285267,3.298252,2.826154,3.243590
3.285292,3.298302,2.835018,3.243590
3.285439,3.298332,2.830989,3.243590
3.285277,3.298272,2.827765,3.243590
3.285272,3.298292,2.828571,3.246007
3.285373,3.298272,2.827765,3.242784
3.285343,3.298348,2.830989,3.248425
3.285257,3.298181,2.828571,3.241172
3.285298,3.298322,2.826960,3.248425
3.285308,3.298302,2.830989,3.242784
3.285368,3.298307,2.830989,3.247619
3.285146,3.298161,2.825348,3.239560
3.285373,3.298312,2.828571,3.244395
3.285207,3.298272,2.826960,3.248425
3.285227,3.298196,2.835824,3.246007
3.285126,3.298201,2.826154,3.239560
3.285182,3.298252,2.822930,3.244395
3.285116,3.298212,2.822930,3.242784
3.285167,3.298171,2.812454,3.237949
3.285056,3.298176,2.822124,3.239560
3.285101,3.298217,2.819707,3.241172
3.285091,3.298277,2.822124,3.243590
3.284970,3.298050,2.817289,3.239560
3.284985,3.298217,2.821319,3.243590
3.284930,3.298156,2.818095,3.239560
3.285021,3.298126,2.822930,3.240366
3.284759,3.298000,2.814066,3.235531
3.284895,3.298151,2.812454,3.235531
3.284794,3.298076,2.810843,3.235531
3.284769,3.297980,2.813260,3.237949
3.284507,3.297985,2.804396,3.235531
3.284648,3.298065,2.809231,3.239560
3.284507,3.297990,2.802784,3.234725
3.284376,3.297965,2.805202,3.230696
3.284310,3.297935,2.797143,3.233114
3.284310,3.297955,2.801172,3.234725
3.284280,3.298010,2.797143,3.236337
3.284205,3.297904,2.785861,3.229890
3.284154,3.297945,2.793113,3.229084
3.284144,3.297940,2.792308,3.234725
3.284255,3.297929,2.793113,3.233114
3.284048,3.297713,2.785861,3.225861
3.284094,3.297904,2.793113,3.228278
3.284028,3.297884,2.791502,3.233919
3.284164,3.297914,2.792308,3.231502
3.283948,3.297834,2.785861,3.226667
3.284164,3.297819,2.792308,3.231502
3.284109,3.297924,2.787472,3.231502
3.284109,3.297793,2.797143,3.231502
3.283943,3.297904,2.785861,3.231502
3.284169,3.297950,2.789084,3.233919
3.284084,3.297990,2.793113,3.235531
3.284129,3.297849,2.785861,3.234725
3.284124,3.297919,2.789084,3.230696
3.284129,3.297909,2.793113,3.233114
3.284265,3.297955,2.795531,3.233919
3.284144,3.297854,2.793919,3.230696
3.284195,3.297960,2.793113,3.233919
3.284200,3.297919,2.794725,3.235531
3.284270,3.297950,2.797143,3.233114
3.284109,3.297859,2.794725,3.227473
3.284215,3.297929,2.797143,3.235531
3.284255,3.297940,2.793113,3.233114
3.284310,3.297879,2.805202,3.234725
3.284179,3.297950,2.793919,3.230696
3.284280,3.297950,2.795531,3.231502
3.284220,3.297990,2.797143,3.233114
3.284195,3.297914,2.798755,3.229890
3.284134,3.297924,2.792308,3.231502
3.284144,3.297935,2.797143,3.232308
3.284184,3.298000,2.792308,3.234725
3.284059,3.297753,2.789084,3.231502
3.284053,3.297914,2.789890,3.230696
3.284064,3.297884,2.788278,3.230696
3.284099,3.297879,2.790696,3.233919
3.283882,3.297783,2.784249,3.226667
3.284023,3.297909,2.789084,3.233919
3.283988,3.297854,2.789084,3.231502
3.284074,3.297753,2.791502,3.225055
3.283887,3.297839,2.784249,3.227473
3.283938,3.297864,2.783443,3.230696
3.283882,3.297889,2.784249,3.227473
3.283862,3.297773,2.778608,3.226667
3.283812,3.297768,2.784249,3.228278
3.283867,3.297804,2.782637,3.226667
3.283862,3.297889,2.783443,3.233919
3.283771,3.297693,2.778608,3.221832
3.283756,3.297849,2.779414,3.230696
3.283787,3.297793,2.781026,3.225861
3.283832,3.297758,2.783443,3.226667
3.283651,3.297657,2.772161,3.221832
3.283771,3.297743,2.781026,3.223443
3.283646,3.297748,2.776191,3.228278
3.283681,3.297773,2.778608,3.221026
3.283504,3.297683,2.771355,3.222637
3.283600,3.297788,2.774579,3.223443
3.283630,3.297753,2.775385,3.227473
3.283530,3.297673,2.782637,3.223443
3.283580,3.297668,2.772967,3.226667
3.283716,3.297713,2.784249,3.225861
3.283847,3.297924,2.781832,3.234725
3.283882,3.297793,2.783443,3.229084
3.283983,3.297955,2.788278,3.233114
3.284189,3.297940,2.791502,3.235531
3.284411,3.297980,2.800366,3.235531
3.284406,3.297945,2.801978,3.233114
3.284592,3.298070,2.805202,3.235531
3.284723,3.298045,2.814066,3.235531
3.284900,3.297985,2.822930,3.235531
3.284859,3.298070,2.814872,3.237143
3.285121,3.298222,2.824542,3.243590
3.285162,3.298257,2.825348,3.244395
3.285197,3.298232,2.828571,3.241172
3.285267,3.298297,2.826154,3.243590
3.285423,3.298327,2.835824,3.246813
3.285494,3.298418,2.835824,3.248425
3.285398,3.298353,2.837436,3.246007
3.285514,3.298383,2.835824,3.243590
3.285575,3.298353,2.835824,3.247619
3.285685,3.298353,2.837436,3.247619
3.285499,3.298247,2.836630,3.241978
3.285610,3.298373,2.836630,3.247619
3.285519,3.298383,2.841465,3.247619
3.285615,3.298408,2.835824,3.244395
3.285489,3.298292,2.835824,3.241172
3.285489,3.298327,2.835824,3.247619
3.285499,3.298358,2.835824,3.244395
3.285484,3.298282,2.835824,3.239560
3.285454,3.298322,2.835018,3.243590
3.285539,3.298348,2.839854,3.246007
3.285494,3.298393,2.835018,3.245201
3.285368,3.298242,2.835824,3.244395
3.285434,3.298272,2.831795,3.244395
3.285398,3.298292,2.830183,3.243590
3.285428,3.298317,2.833407,3.247619
3.285247,3.298106,2.828571,3.241172
3.285227,3.298272,2.830989,3.241172
3.285242,3.298302,2.834213,3.242784
3.285308,3.298232,2.833407,3.241172
3.285116,3.298081,2.823736,3.237949
3.285247,3.298176,2.830183,3.241172
3.285157,3.298186,2.824542,3.242784
3.285136,3.298045,2.831795,3.237143
3.285066,3.298121,2.822124,3.237143
3.285066,3.298196,2.826960,3.238755
3.285101,3.298262,2.822930,3.240366
3.285076,3.298101,2.823736,3.240366
3.285076,3.298136,2.817289,3.236337
3.285051,3.298196,2.821319,3.237143
3.285066,3.298201,2.822124,3.242784
3.284975,3.297995,2.814872,3.239560
3.284910,3.298081,2.818095,3.237949
3.284930,3.298076,2.814872,3.236337
3.285010,3.298060,2.819707,3.235531
3.284749,3.297990,2.815678,3.235531
3.284839,3.298040,2.814066,3.235531
3.284799,3.298096,2.812454,3.237949
3.284764,3.298050,2.818901,3.235531
3.284648,3.297990,2.808425,3.231502
3.284718,3.298081,2.812454,3.235531
3.284744,3.298050,2.810843,3.236337
3.284638,3.297990,2.814872,3.235531
3.284688,3.298020,2.814066,3.234725
3.284774,3.298035,2.814066,3.235531
3.284809,3.298121,2.813260,3.239560
3.284789,3.298020,2.812454,3.236337
3.284794,3.298126,2.815678,3.237143
3.284849,3.298076,2.814066,3.237143
3.285010,3.298126,2.821319,3.237949
3.284829,3.297985,2.814872,3.235531
3.285015,3.298101,2.819707,3.235531
3.284930,3.298146,2.820513,3.237143
3.284975,3.298045,2.822124,3.240366
3.284849,3.298045,2.818095,3.235531
3.284990,3.298106,2.814872,3.236337
3.284995,3.298136,2.821319,3.239560
3.284985,3.298076,2.818901,3.237949
3.284950,3.298106,2.820513,3.237949
3.285036,3.298131,2.818095,3.242784
3.285056,3.298212,2.820513,3.244395
3.285000,3.298131,2.820513,3.236337
3.285021,3.298196,2.822930,3.237949
3.285046,3.298141,2.820513,3.236337
3.285106,3.298121,2.823736,3.236337
3.285026,3.298000,2.820513,3.235531
3.285061,3.298116,2.823736,3.236337
3.285026,3.298126,2.815678,3.241172
3.285081,3.298171,2.822930,3.241978
3.284854,3.298050,2.817289,3.236337
3.284965,3.298217,2.822930,3.237143
3.285010,3.298151,2.818901,3.239560
3.285041,3.298055,2.814872,3.234725
3.284885,3.298096,2.818901,3.238755
3.284965,3.298106,2.818901,3.239560
3.284900,3.298257,2.814066,3.243590
3.284829,3.298030,2.810843,3.237949
3.284885,3.298121,2.818095,3.238755
3.284844,3.298005,2.818095,3.235531
3.284920,3.298091,2.814872,3.241172
3.284668,3.297955,2.809231,3.234725
3.284733,3.298101,2.809231,3.235531
3.284618,3.298060,2.812454,3.235531
3.284688,3.298020,2.810843,3.240366
3.284618,3.297975,2.812454,3.235531
3.284587,3.298010,2.804396,3.238755
3.284562,3.298010,2.805202,3.235531
3.284653,3.297970,2.804396,3.235531
3.284411,3.297960,2.799561,3.234725
3.284416,3.297980,2.797949,3.235531
3.284376,3.298055,2.797143,3.235531
3.284290,3.297909,2.797143,3.231502
3.284285,3.297950,2.797143,3.233114
3.284331,3.297955,2.799561,3.230696
3.284295,3.297970,2.797143,3.235531
3.284195,3.297763,2.793113,3.226667
3.284124,3.297829,2.793113,3.233114
3.284139,3.297844,2.795531,3.229890
3.284109,3.297829,2.793919,3.233114
3.283923,3.297693,2.785055,3.225055
3.284028,3.297859,2.789084,3.233919
3.283918,3.297814,2.787472,3.227473
3.284064,3.297693,2.795531,3.228278
3.283852,3.297768,2.782637,3.226667
3.283887,3.297799,2.787472,3.231502
3.283907,3.297844,2.783443,3.228278
3.283782,3.297703,2.776191,3.224249
3.283847,3.297733,2.784249,3.227473
3.283887,3.297778,2.788278,3.228278
3.283862,3.297864,2.781832,3.224249
3.283807,3.297637,2.781832,3.225055
3.283892,3.297788,2.789890,3.228278
3.283877,3.297783,2.783443,3.226667
3.283943,3.297849,2.787472,3.231502
3.283787,3.297627,2.784249,3.222637
3.283877,3.297834,2.786667,3.222637
3.283807,3.297753,2.776996,3.228278
3.283832,3.297577,2.784249,3.225055
3.283686,3.297622,2.776996,3.223443
3.283827,3.297799,2.782637,3.230696
3.283837,3.297783,2.783443,3.230696
3.283676,3.297703,2.783443,3.225055
3.283761,3.297723,2.776996,3.224249
3.283787,3.297799,2.779414,3.226667
3.283792,3.297874,2.780220,3.230696
3.283716,3.297673,2.781832,3.221832
3.283751,3.297793,2.780220,3.228278
3.283787,3.297763,2.781026,3.225861
3.283847,3.297834,2.784249,3.224249
3.283681,3.297617,2.776191,3.220220
3.283812,3.297733,2.781026,3.224249
3.283771,3.297733,2.782637,3.225861
3.283746,3.297602,2.784249,3.227473
3.283510,3.297647,2.773773,3.221832
3.283570,3.297683,2.780220,3.221026
3.283570,3.297708,2.775385,3.225861
3.283444,3.297592,2.775385,3.223443
3.283469,3.297592,2.771355,3.223443
3.283560,3.297657,2.771355,3.230696
3.283510,3.297743,2.771355,3.226667
3.283429,3.297537,2.768132,3.222637
3.283409,3.297642,2.760073,3.222637
3.283424,3.297582,2.768938,3.222637
3.283535,3.297617,2.775385,3.223443
3.283278,3.297441,2.763297,3.216996
3.283318,3.297607,2.766520,3.224249
3.283308,3.297532,2.763297,3.221026
3.283263,3.297431,2.767326,3.222637
3.283107,3.297501,2.763297,3.218608
3.283238,3.297567,2.763297,3.221832
3.283086,3.297522,2.762491,3.221832
3.283228,3.297391,2.767326,3.217802
3.283102,3.297481,2.754432,3.219414
3.283258,3.297527,2.757656,3.221832
3.283197,3.297657,2.760073,3.226667
3.283228,3.297486,2.767326,3.221832
3.283414,3.297647,2.764908,3.219414
3.283520,3.297622,2.771355,3.226667
3.283807,3.297814,2.776191,3.226667
3.283751,3.297622,2.787472,3.223443
3.283963,3.297894,2.784249,3.232308
3.284200,3.297929,2.789890,3.230696
3.284315,3.297799,2.801978,3.230696
3.284300,3.297950,2.801172,3.233114
3.284633,3.298015,2.814872,3.234725
3.284698,3.298030,2.811648,3.234725
3.284940,3.297990,2.820513,3.235531
3.284859,3.298086,2.812454,3.237949
3.284985,3.298116,2.821319,3.238755
3.285081,3.298277,2.822124,3.241172
3.285005,3.298106,2.822124,3.240366
3.285101,3.298161,2.822930,3.239560
3.285172,3.298176,2.823736,3.240366
3.285267,3.298212,2.826960,3.244395
3.285177,3.298136,2.825348,3.234725
3.285192,3.298227,2.826960,3.244395
3.285262,3.298242,2.830989,3.241172
3.285383,3.298217,2.830989,3.247619
3.285126,3.298151,2.827765,3.242784
3.285313,3.298277,2.830989,3.235531
3.285323,3.298297,2.828571,3.239560
3.285318,3.298166,2.834213,3.242784
3.285146,3.298186,2.825348,3.240366
3.285227,3.298247,2.835824,3.243590
3.285227,3.298317,2.833407,3.244395
3.285373,3.298191,2.826960,3.239560
3.285131,3.298161,2.824542,3.242784
3.285157,3.298227,2.826960,3.241172
3.285157,3.298196,2.822930,3.241978
3.285121,3.298091,2.822930,3.239560
3.285111,3.298247,2.822930,3.245201
3.285106,3.298156,2.823736,3.237143
3.285152,3.298065,2.823736,3.247619
3.284970,3.298045,2.821319,3.235531
3.285066,3.298206,2.825348,3.237143
3.285056,3.298111,2.822930,3.241172
3.285091,3.298101,2.822124,3.236337
3.284920,3.298096,2.814066,3.237949
3.285036,3.298121,2.819707,3.237143
3.285026,3.298151,2.821319,3.241172
3.284955,3.298101,2.820513,3.236337
3.284960,3.298076,2.817289,3.237949
3.284960,3.298146,2.815678,3.237949
3.285010,3.298227,2.818901,3.244395
3.284834,3.298060,2.814066,3.236337
3.284910,3.298131,2.811648,3.239560
3.284895,3.298131,2.814872,3.235531
3.285021,3.298206,2.822124,3.241172
3.284834,3.298010,2.818095,3.235531
3.284925,3.298116,2.812454,3.237143
3.284809,3.298040,2.814066,3.237949
3.284869,3.298045,2.811648,3.238755
3.284648,3.297990,2.808425,3.235531
3.284809,3.298060,2.814872,3.236337
3.284759,3.298030,2.814066,3.235531
3.284728,3.297995,2.818095,3.234725
3.284683,3.298010,2.807619,3.235531
3.284754,3.298040,2.809231,3.236337
3.284779,3.298181,2.814066,3.241978
3.284718,3.298040,2.810037,3.237143
3.284739,3.298126,2.812454,3.237949
3.284864,3.298101,2.818095,3.241172
3.285041,3.298186,2.817289,3.241172
3.284880,3.298015,2.813260,3.234725
3.284995,3.298161,2.818901,3.239560
3.285046,3.298131,2.820513,3.239560
3.285081,3.298171,2.821319,3.235531
3.284960,3.298081,2.820513,3.240366
3.285106,3.298156,2.822930,3.241172
3.285111,3.298242,2.824542,3.242784
3.285086,3.298171,2.826960,3.240366
3.285086,3.298247,2.822930,3.243590
3.285298,3.298262,2.822930,3.243590
3.285121,3.298368,2.826960,3.240366
3.285116,3.298171,2.822930,3.237949
3.285101,3.298247,2.822930,3.238755
3.285197,3.298272,2.825348,3.242784
3.285217,3.298237,2.825348,3.244395
3.285126,3.298126,2.825348,3.242784
3.285101,3.298176,2.823736,3.244395
3.285141,3.298282,2.824542,3.244395
3.285182,3.298297,2.827765,3.239560
3.285066,3.298156,2.822930,3.236337
3.285141,3.298297,2.822930,3.242784
3.285111,3.298232,2.822930,3.242784
3.285162,3.298156,2.823736,3.241172
3.285016,3.298186,2.820513,3.239560
3.285021,3.298232,2.822930,3.238755
3.285091,3.298342,2.822930,3.244395
3.285010,3.298111,2.824542,3.241172
3.285061,3.298171,2.821319,3.237949
3.285056,3.298131,2.817289,3.237949
3.285106,3.298262,2.820513,3.241172
3.285000,3.298040,2.818901,3.235531
3.284965,3.298232,2.817289,3.237949
3.285026,3.298156,2.820513,3.239560
3.285071,3.298176,2.822930,3.238755
3.284880,3.298050,2.818901,3.235531
3.284975,3.298146,2.817289,3.243590
3.284945,3.298156,2.818901,3.238755
3.284995,3.298055,2.822930,3.233919
3.284739,3.298050,2.811648,3.237143
3.284804,3.298101,2.821319,3.237949
3.284895,3.298196,2.817289,3.239560
3.284890,3.298091,2.809231,3.236337
3.284713,3.298060,2.811648,3.235531
3.284799,3.298086,2.809231,3.238755
3.284799,3.298176,2.811648,3.240366
3.284688,3.298020,2.811648,3.235531
3.284764,3.298176,2.808425,3.237143
3.284794,3.298166,2.815678,3.240366
3.284925,3.298166,2.818095,3.239560
3.284744,3.298020,2.806813,3.235531
3.284824,3.298065,2.820513,3.243590
3.284844,3.298101,2.814872,3.237143
3.284960,3.297960,2.822930,3.235531
3.284613,3.298020,2.808425,3.235531
3.284779,3.298081,2.809231,3.235531
3.284718,3.298086,2.810037,3.239560
3.284698,3.297990,2.816483,3.235531
3.284658,3.298025,2.807619,3.235531
3.284779,3.298076,2.811648,3.237143
3.284693,3.298186,2.807619,3.239560
3.284623,3.298040,2.806007,3.234725
3.284653,3.298131,2.809231,3.239560
3.284703,3.298076,2.808425,3.237949
3.284819,3.298116,2.812454,3.235531
3.284688,3.297980,2.808425,3.234725
3.284779,3.298055,2.813260,3.237949
3.284688,3.298086,2.810037,3.237143
3.284698,3.298045,2.810843,3.237949
3.284592,3.298055,2.807619,3.235531
3.284764,3.298121,2.810037,3.245201
3.284728,3.298091,2.812454,3.237143
3.284733,3.298030,2.804396,3.236337
3.284678,3.298050,2.807619,3.235531
3.284749,3.298076,2.813260,3.236337
3.284744,3.298201,2.810037,3.240366
3.284683,3.298005,2.809231,3.235531
3.284673,3.298121,2.809231,3.237949
3.284683,3.298065,2.810037,3.238755
3.284849,3.298161,2.811648,3.239560
3.284587,3.297970,2.808425,3.234725
3.284653,3.298181,2.805202,3.235531
3.284542,3.298025,2.809231,3.235531
3.284718,3.298025,2.810843,3.235531
3.284517,3.298000,2.804396,3.235531
3.284739,3.298156,2.810037,3.244395
3.284623,3.298060,2.807619,3.237143
3.284633,3.298005,2.805202,3.237949
3.284542,3.297990,2.805202,3.236337
3.284693,3.298076,2.808425,3.237949
3.284638,3.298227,2.806007,3.237143
3.284592,3.298010,2.808425,3.237143
3.284608,3.298091,2.807619,3.235531
3.284653,3.298035,2.810037,3.236337
3.284723,3.298116,2.807619,3.240366
3.284527,3.297980,2.805202,3.233919
3.284618,3.298035,2.806813,3.238755
3.284668,3.298076,2.806007,3.236337
3.284678,3.298111,2.811648,3.237143
3.284517,3.297985,2.805202,3.235531
3.284643,3.298091,2.812454,3.242784
3.284658,3.298081,2.806813,3.237949
3.284648,3.298005,2.808425,3.240366
3.284527,3.298065,2.805202,3.236337
3.284749,3.298091,2.810037,3.237949
3.284708,3.298186,2.812454,3.239560
3.284673,3.298050,2.809231,3.237143
3.284779,3.298116,2.810843,3.239560
3.284905,3.298186,2.818095,3.242784
3.285051,3.298297,2.818901,3.244395
3.285056,3.298176,2.820513,3.239560
3.285141,3.298337,2.822930,3.246813
3.285313,3.298373,2.835824,3.247619
3.285479,3.298388,2.835824,3.252454
3.285459,3.298302,2.831795,3.243590
3.285655,3.298383,2.838242,3.248425
3.285670,3.298428,2.841465,3.249231
3.285781,3.298327,2.847912,3.246813
3.285801,3.298403,2.843883,3.248425
3.285877,3.298478,2.848718,3.250843
3.285983,3.298584,2.850330,3.252454
3.285973,3.298494,2.845495,3.250843
3.286088,3.298504,2.853553,3.255678
3.286239,3.298630,2.860000,3.254066
3.286244,3.298695,2.859194,3.260513
3.286255,3.298529,2.858388,3.250843
3.286335,3.298690,2.863224,3.259707
3.286411,3.298705,2.860806,3.259707
3.286532,3.298655,2.869670,3.257289
3.286265,3.298539,2.868059,3.248425
3.286481,3.298594,2.862418,3.255678
3.286406,3.298640,2.865641,3.256484
3.286481,3.298594,2.872894,3.253260
3.286350,3.298604,2.862418,3.250843
3.286476,3.298609,2.869670,3.253260
3.286476,3.298670,2.865641,3.258901
3.286456,3.298579,2.870476,3.250843
3.286355,3.298609,2.861612,3.252454
3.286547,3.298685,2.865641,3.255678
3.286355,3.298776,2.863224,3.260513
3.286396,3.298584,2.864835,3.255678
3.286431,3.298695,2.865641,3.254872
3.286416,3.298619,2.872894,3.257289
3.286617,3.298690,2.872894,3.257289
3.286391,3.298544,2.866447,3.250843
3.286567,3.298720,2.868059,3.261319
3.286466,3.298675,2.864835,3.256484
3.286537,3.298675,2.872088,3.261319
3.286401,3.298619,2.863224,3.252454
3.286607,3.298690,2.868865,3.260513
3.286547,3.298700,2.868865,3.257289
3.286673,3.298685,2.872894,3.254872
3.286476,3.298690,2.864835,3.257289
3.286516,3.298735,2.867253,3.260513
3.286557,3.298781,2.870476,3.262125
3.286441,3.298630,2.870476,3.254872
3.286506,3.298735,2.866447,3.256484
3.286537,3.298690,2.868059,3.256484
3.286637,3.298735,2.865641,3.257289
3.286421,3.298559,2.864029,3.253260
3.286532,3.298685,2.865641,3.256484
3.286446,3.298700,2.870476,3.254066
3.286532,3.298675,2.871282,3.256484
3.286355,3.298569,2.863224,3.253260
3.286461,3.298740,2.871282,3.257289
3.286446,3.298680,2.866447,3.259707
3.286552,3.298640,2.859194,3.257289
3.286340,3.298645,2.864029,3.255678
3.286501,3.298725,2.865641,3.258095
3.286522,3.298821,2.872088,3.260513
3.286486,3.298690,2.865641,3.257289
3.286486,3.298725,2.868865,3.255678
3.286542,3.298700,2.872894,3.257289
3.286592,3.298750,2.863224,3.259707
3.286421,3.298594,2.870476,3.254066
3.286441,3.298685,2.865641,3.259707
3.286522,3.298670,2.863224,3.258901
3.286562,3.298720,2.870476,3.255678
3.286360,3.298675,2.862418,3.252454
3.286441,3.298660,2.869670,3.258901
3.286486,3.298695,2.871282,3.261319
3.286582,3.298630,2.865641,3.253260
3.286375,3.298645,2.862418,3.254066
3.286446,3.298745,2.868865,3.256484
3.286552,3.298766,2.870476,3.258901
3.286597,3.298665,2.868865,3.255678
3.286572,3.298720,2.866447,3.258095
3.286552,3.298695,2.870476,3.255678
3.286607,3.298801,2.868865,3.261319
3.286491,3.298614,2.866447,3.261319
3.286597,3.298771,2.869670,3.261319
3.286572,3.298730,2.867253,3.256484
3.286693,3.298670,2.873700,3.261319
3.286522,3.298609,2.864835,3.254066
3.286592,3.298715,2.870476,3.256484
3.286587,3.298745,2.872894,3.260513
3.286612,3.298710,2.874506,3.257289
3.286436,3.298660,2.865641,3.261319
3.286587,3.298761,2.868865,3.257289
3.286547,3.298755,2.872088,3.259707
3.286491,3.298675,2.865641,3.257289
3.286542,3.298725,2.870476,3.260513
3.286617,3.298705,2.876923,3.260513
3.286602,3.298781,2.870476,3.260513
3.286471,3.298660,2.866447,3.254066
3.286466,3.298786,2.868865,3.258095
3.286542,3.298776,2.871282,3.259707
3.286637,3.298735,2.872088,3.261319
3.286426,3.298534,2.865641,3.255678
3.286522,3.298660,2.868865,3.259707
3.286446,3.298705,2.868865,3.257289
3.286451,3.298614,2.865641,3.261319
3.286310,3.298604,2.860806,3.254066
3.286375,3.298715,2.865641,3.258095
3.286330,3.298640,2.860806,3.257289
3.286370,3.298604,2.862418,3.256484
3.286245,3.298579,2.859194,3.253260
3.286386,3.298670,2.862418,3.256484
3.286305,3.298725,2.863224,3.261319
3.286229,3.298645,2.853553,3.250843
3.286280,3.298700,2.857582,3.257289
3.286305,3.298660,2.860806,3.254066
3.286380,3.298725,2.861612,3.257289
3.286219,3.298489,2.859194,3.251648
3.286330,3.298695,2.859194,3.255678
3.286219,3.298665,2.860000,3.254066
3.286360,3.298519,2.859194,3.260513
3.286114,3.298594,2.853553,3.252454
3.286224,3.298594,2.852747,3.250037
3.286245,3.298619,2.857582,3.253260
3.286245,3.298554,2.860806,3.251648
3.286093,3.298569,2.852747,3.252454
3.286209,3.298609,2.851135,3.250843
3.286154,3.298710,2.855971,3.254872
3.285952,3.298494,2.855165,3.252454
3.286003,3.298619,2.851941,3.254872
3.286088,3.298609,2.851135,3.250037
3.286189,3.298680,2.854359,3.256484
3.285947,3.298478,2.848718,3.250843
3.286013,3.298524,2.851135,3.253260
3.286023,3.298584,2.852747,3.255678
3.285998,3.298559,2.855971,3.259707
3.285892,3.298448,2.849524,3.248425
3.286048,3.298604,2.851135,3.250843
3.285942,3.298529,2.848718,3.252454
3.286003,3.298478,2.852747,3.248425
3.285887,3.298468,2.848718,3.248425
3.285882,3.298484,2.848718,3.250037
3.285942,3.298645,2.848718,3.255678
3.285867,3.298438,2.845495,3.248425
3.285887,3.298453,2.848718,3.250037
3.285902,3.298494,2.848718,3.250843
3.285957,3.298599,2.849524,3.257289
3.285897,3.298418,2.847912,3.249231
3.285887,3.298504,2.848718,3.254066
3.285902,3.298494,2.848718,3.250843
3.285907,3.298574,2.851135,3.253260
3.285837,3.298428,2.844689,3.248425
3.285867,3.298524,2.851135,3.252454
3.285872,3.298509,2.848718,3.249231
3.285897,3.298463,2.851135,3.251648
3.285771,3.298398,2.844689,3.248425
3.285902,3.298489,2.850330,3.254066
3.285842,3.298564,2.848718,3.249231
3.285872,3.298398,2.843883,3.248425
3.285761,3.298403,2.844689,3.248425
3.285842,3.298478,2.848718,3.250037
3.285837,3.298524,2.846300,3.252454
3.285731,3.298393,2.846300,3.248425
3.285746,3.298509,2.844689,3.250037
3.285761,3.298468,2.843077,3.248425
3.285902,3.298529,2.847912,3.252454
3.285615,3.298368,2.842271,3.246813
3.285711,3.298473,2.846300,3.249231
3.285665,3.298413,2.841465,3.248425
3.285670,3.298458,2.843883,3.246813
3.285539,3.298373,2.837436,3.247619
3.285620,3.298438,2.841465,3.249231
3.285620,3.298413,2.839854,3.248425
3.285519,3.298378,2.843077,3.247619
3.285565,3.298373,2.835824,3.250037
3.285640,3.298408,2.838242,3.248425
3.285751,3.298514,2.843077,3.252454
3.285736,3.298388,2.841465,3.248425
3.285811,3.298539,2.842271,3.252454
3.285882,3.298494,2.848718,3.248425
3.286058,3.298675,2.854359,3.254066
3.286008,3.298428,2.855971,3.248425
3.286184,3.298650,2.857582,3.255678
3.286245,3.298660,2.856776,3.254872
3.286471,3.298574,2.862418,3.261319
3.286270,3.298625,2.861612,3.253260
3.286446,3.298740,2.867253,3.261319
3.286602,3.298766,2.870476,3.258901
3.286718,3.298720,2.874506,3.258901
3.286607,3.298755,2.872088,3.258901
3.286708,3.298821,2.872088,3.261319
3.286748,3.298871,2.876923,3.261319
3.286693,3.298730,2.877729,3.258901
3.286763,3.298811,2.874506,3.261319
3.286834,3.298776,2.876923,3.261319
3.287055,3.298851,2.878535,3.262930
3.286829,3.298720,2.879341,3.255678
3.286864,3.298821,2.878535,3.260513
3.286919,3.298791,2.877729,3.258901
3.287055,3.298755,2.894652,3.265348
3.286839,3.298776,2.879341,3.260513
3.287005,3.298851,2.881758,3.263736
3.287136,3.298816,2.882564,3.262125
3.287111,3.298786,2.896264,3.259707
3.286904,3.298796,2.878535,3.261319
3.287161,3.298851,2.879341,3.260513
3.286940,3.298937,2.882564,3.262930
3.286854,3.298776,2.889011,3.258901
3.286914,3.298791,2.881758,3.260513
3.286985,3.298831,2.881758,3.259707
3.287081,3.298836,2.889817,3.262125
3.286889,3.298730,2.877729,3.258095
3.286879,3.298801,2.876923,3.259707
3.286990,3.298796,2.883370,3.261319
3.286940,3.298761,2.883370,3.261319
3.286743,3.298735,2.876923,3.258095
3.286884,3.298816,2.876117,3.263736
3.286854,3.298796,2.876117,3.260513
3.286879,3.298700,2.881758,3.257289
3.286703,3.298766,2.874506,3.259707
3.286763,3.298771,2.874506,3.257289
3.286773,3.298836,2.875311,3.261319
3.286768,3.298761,2.874506,3.258901
3.286688,3.298766,2.875311,3.258095
3.286678,3.298776,2.872894,3.262125
3.286743,3.298796,2.874506,3.261319
3.286678,3.298609,2.874506,3.257289
3.286683,3.298755,2.872088,3.258901
3.286658,3.298745,2.874506,3.259707
3.286733,3.298771,2.874506,3.262125
3.286637,3.298675,2.872088,3.255678
3.286698,3.298725,2.874506,3.261319
3.286642,3.298735,2.874506,3.260513
3.286693,3.298715,2.872894,3.258901
3.286587,3.298730,2.870476,3.259707
3.286718,3.298761,2.872894,3.260513
3.286708,3.298776,2.872894,3.258901
3.286642,3.298720,2.872088,3.255678
3.286668,3.298750,2.873700,3.260513
3.286703,3.298710,2.876923,3.258901
3.286678,3.298796,2.873700,3.261319
3.286597,3.298665,2.873700,3.254066
3.286647,3.298766,2.872088,3.261319
3.286698,3.298771,2.874506,3.258901
3.286703,3.298755,2.874506,3.260513
3.286642,3.298569,2.874506,3.256484
3.286652,3.298730,2.874506,3.260513
3.286652,3.298740,2.874506,3.258901
3.286743,3.298614,2.873700,3.254872
3.286557,3.298670,2.869670,3.257289
3.286678,3.298750,2.875311,3.261319
3.286698,3.298750,2.872088,3.258901
3.286617,3.298730,2.877729,3.258095
3.286678,3.298715,2.871282,3.258901
3.286703,3.298761,2.873700,3.259707
3.286723,3.298821,2.874506,3.261319
3.286683,3.298690,2.874506,3.255678
3.286698,3.298796,2.874506,3.261319
3.286718,3.298806,2.874506,3.261319
3.286874,3.298801,2.880952,3.262125
3.286713,3.298640,2.874506,3.253260
3.286743,3.298730,2.874506,3.259707
3.286713,3.298776,2.874506,3.261319
3.286809,3.298705,2.878535,3.261319
3.286673,3.298725,2.873700,3.258901
3.286834,3.298761,2.874506,3.255678
3.286718,3.298766,2.874506,3.256484
3.286718,3.298730,2.871282,3.258901
3.286698,3.298745,2.874506,3.258901
3.286768,3.298776,2.879341,3.259707
3.286703,3.298826,2.872088,3.262125
3.286668,3.298710,2.874506,3.258901
3.286642,3.298771,2.872894,3.259707
3.286688,3.298735,2.874506,3.260513
3.286763,3.298791,2.874506,3.260513
3.286602,3.298655,2.871282,3.253260
3.286663,3.298755,2.870476,3.259707
3.286647,3.298781,2.871282,3.256484
3.286673,3.298771,2.874506,3.259707
3.286471,3.298710,2.872894,3.253260
3.286527,3.298715,2.874506,3.260513
3.286572,3.298745,2.870476,3.258095
3.286597,3.298665,2.874506,3.254872
3.286461,3.298700,2.869670,3.257289
3.286597,3.298725,2.864835,3.257289
3.286527,3.298806,2.872088,3.261319
3.286466,3.298635,2.874506,3.256484
3.286466,3.298685,2.867253,3.258095
3.286496,3.298715,2.866447,3.257289
3.286602,3.298725,2.868865,3.261319
3.286416,3.298549,2.868865,3.254872
3.286365,3.298720,2.865641,3.257289
3.286406,3.298710,2.868865,3.257289
3.286466,3.298740,2.866447,3.263736
3.286224,3.298534,2.857582,3.250037
3.286370,3.298665,2.864835,3.256484
3.286360,3.298630,2.861612,3.255678
3.286365,3.298645,2.860000,3.249231
3.286149,3.298574,2.856776,3.251648
3.286315,3.298645,2.860000,3.257289
3.286265,3.298670,2.860806,3.254066
3.286103,3.298514,2.852747,3.254066
3.286224,3.298589,2.855165,3.254066
3.286229,3.298549,2.857582,3.255678
3.286265,3.298685,2.857582,3.256484
3.286149,3.298519,2.859194,3.254066
3.286199,3.298554,2.859194,3.255678
3.286255,3.298564,2.853553,3.256484
3.286255,3.298564,2.861612,3.256484
3.286139,3.298443,2.857582,3.248425
3.286265,3.298559,2.861612,3.258095
3.286184,3.298549,2.856776,3.255678
3.286199,3.298489,2.859194,3.248425
3.286028,3.298494,2.851135,3.251648
3.286114,3.298509,2.853553,3.253260
3.286119,3.298635,2.855971,3.253260
3.285907,3.298453,2.848718,3.251648
3.285988,3.298524,2.854359,3.251648
3.286058,3.298574,2.855971,3.252454
3.286098,3.298660,2.855971,3.254066
3.286018,3.298478,2.851135,3.250843
3.286018,3.298645,2.853553,3.251648
3.286028,3.298539,2.855165,3.253260
3.286109,3.298599,2.859194,3.255678
3.285942,3.298408,2.848718,3.248425
3.286038,3.298458,2.853553,3.258901
3.286023,3.298549,2.848718,3.250037
3.286023,3.298564,2.852747,3.256484
3.285892,3.298463,2.850330,3.248425
3.286028,3.298549,2.849524,3.257289
3.285973,3.298499,2.851135,3.250843
3.285947,3.298448,2.855971,3.249231
3.285877,3.298504,2.847912,3.248425
3.285922,3.298489,2.848718,3.250037
3.286003,3.298635,2.851941,3.256484
3.285897,3.298463,2.848718,3.248425
3.285897,3.298554,2.848718,3.249231
3.285932,3.298514,2.848718,3.248425
3.286048,3.298564,2.852747,3.251648
3.285887,3.298388,2.847912,3.246007
3.285887,3.298433,2.847912,3.250843
3.285882,3.298453,2.849524,3.250037
3.285887,3.298539,2.848718,3.246813
3.285776,3.298398,2.846300,3.247619
3.285902,3.298554,2.853553,3.256484
3.285887,3.298504,2.846300,3.248425
3.285967,3.298438,2.843077,3.248425
3.285862,3.298473,2.844689,3.248425
3.285983,3.298544,2.851941,3.250843
3.285932,3.298665,2.850330,3.258095
3.285932,3.298484,2.852747,3.248425
3.286053,3.298599,2.853553,3.251648
3.286134,3.298539,2.855971,3.256484
3.286335,3.298700,2.861612,3.258901
3.286234,3.298524,2.860000,3.252454
3.286436,3.298735,2.863224,3.259707
3.286557,3.298715,2.866447,3.258095
3.286693,3.298690,2.874506,3.259707
3.286637,3.298700,2.871282,3.255678
3.286743,3.298776,2.874506,3.261319
3.286854,3.298781,2.877729,3.259707
3.286819,3.298740,2.874506,3.256484
3.286809,3.298781,2.878535,3.261319
3.287020,3.298786,2.882564,3.262125
3.287131,3.298907,2.883370,3.261319
3.287020,3.298796,2.881758,3.258901
3.287166,3.298791,2.880147,3.261319
3.287212,3.298826,2.893846,3.259707
3.287327,3.298922,2.891428,3.262125
3.287171,3.298781,2.892234,3.261319
3.287196,3.298836,2.891428,3.263736
3.287257,3.298841,2.890623,3.262930
3.287363,3.298766,2.893040,3.265348
3.287010,3.298771,2.892234,3.259707
3.287342,3.298816,2.890623,3.261319
3.287272,3.298841,2.894652,3.261319
3.287348,3.298846,2.892234,3.262125
3.287086,3.298801,2.889011,3.261319
3.287272,3.298821,2.888205,3.262125
3.287267,3.298876,2.889817,3.261319
3.286955,3.298786,2.879341,3.261319
3.287156,3.298796,2.888205,3.261319
3.287196,3.298811,2.889817,3.261319
3.287161,3.298871,2.891428,3.264542
3.287081,3.298755,2.880147,3.260513
3.287141,3.298851,2.884176,3.262125
3.287126,3.298796,2.892234,3.261319
3.287196,3.298816,2.889011,3.261319
3.286970,3.298740,2.881758,3.258095
3.287045,3.298781,2.883370,3.261319
3.286929,3.298791,2.880147,3.261319
3.286940,3.298705,2.890623,3.259707
3.286763,3.298750,2.875311,3.259707
3.286864,3.298781,2.874506,3.259707
3.286869,3.298796,2.880952,3.261319
3.286783,3.298730,2.881758,3.257289
3.286723,3.298750,2.876117,3.259707
3.286819,3.298776,2.883370,3.261319
3.286763,3.298821,2.877729,3.261319
3.286718,3.298700,2.874506,3.259707
3.286753,3.298781,2.874506,3.261319
3.286713,3.298776,2.874506,3.258095
3.286778,3.298766,2.878535,3.258095
3.286617,3.298559,2.874506,3.254066
3.286698,3.298710,2.873700,3.259707
3.286683,3.298715,2.873700,3.257289
3.286718,3.298665,2.874506,3.256484
3.286537,3.298640,2.868865,3.256484
3.286673,3.298640,2.867253,3.253260
3.286693,3.298745,2.870476,3.258095
3.286622,3.298660,2.874506,3.254066
3.286632,3.298695,2.870476,3.259707
3.286723,3.298755,2.874506,3.260513
3.286703,3.298801,2.874506,3.261319
3.286688,3.298700,2.868865,3.255678
3.286673,3.298750,2.873700,3.257289
3.286698,3.298720,2.870476,3.261319
3.286809,3.298745,2.872088,3.260513
3.286652,3.298589,2.873700,3.255678
3.286673,3.298680,2.873700,3.258095
3.286703,3.298771,2.873700,3.258095
3.286693,3.298776,2.877729,3.261319
3.286567,3.298695,2.874506,3.255678
3.286723,3.298685,2.874506,3.261319
3.286698,3.298755,2.874506,3.261319
3.286673,3.298680,2.878535,3.254066
3.286663,3.298700,2.872088,3.258095
3.286673,3.298776,2.878535,3.257289
3.286713,3.298836,2.877729,3.259707
3.286663,3.298685,2.876117,3.253260
3.286693,3.298730,2.874506,3.256484
3.286718,3.298781,2.874506,3.258901
3.286804,3.298786,2.876117,3.261319
3.286713,3.298680,2.873700,3.255678
3.286703,3.298761,2.874506,3.261319
3.286733,3.298766,2.874506,3.261319
3.286763,3.298745,2.876117,3.258095
3.286658,3.298660,2.874506,3.253260
3.286748,3.298750,2.874506,3.261319
3.286753,3.298755,2.875311,3.260513
3.286718,3.298705,2.879341,3.254066
3.286668,3.298730,2.870476,3.257289
3.286733,3.298771,2.876117,3.257289
3.286698,3.298811,2.874506,3.258901
3.286612,3.298680,2.871282,3.255678
3.286663,3.298665,2.872088,3.254066
3.286673,3.298710,2.872894,3.260513
3.286693,3.298750,2.872088,3.260513
3.286587,3.298599,2.869670,3.255678
3.286597,3.298725,2.872088,3.262930
3.286582,3.298705,2.872894,3.257289
3.286652,3.298685,2.871282,3.258901
3.286491,3.298559,2.867253,3.250037
3.286637,3.298695,2.872088,3.254066
3.286471,3.298685,2.866447,3.256484
3.286577,3.298569,2.860000,3.252454
3.286370,3.298614,2.863224,3.252454
3.286416,3.298645,2.863224,3.254066
3.286370,3.298700,2.864029,3.254872
3.286491,3.298549,2.857582,3.252454
3.286315,3.298594,2.861612,3.252454
3.286355,3.298614,2.867253,3.248425
3.286431,3.298715,2.865641,3.261319
3.286300,3.298489,2.862418,3.251648
3.286370,3.298660,2.861612,3.258901
3.286401,3.298645,2.864835,3.250843
3.286511,3.298614,2.870476,3.254066
3.286330,3.298499,2.861612,3.251648
3.286451,3.298564,2.867253,3.260513
3.286350,3.298655,2.864835,3.251648
3.286375,3.298519,2.868865,3.250037
3.286265,3.298554,2.860806,3.253260
3.286370,3.298690,2.866447,3.254066
3.286411,3.298625,2.865641,3.253260
3.286250,3.298619,2.866447,3.253260
3.286270,3.298604,2.860806,3.250843
3.286411,3.298604,2.864029,3.255678
3.286330,3.298720,2.864029,3.258095
3.286239,3.298509,2.857582,3.248425
3.286295,3.298690,2.861612,3.253260
3.286305,3.298594,2.864029,3.256484
3.286350,3.298695,2.864835,3.254066
3.286189,3.298448,2.856776,3.248425
3.286275,3.298589,2.859194,3.250843
3.286255,3.298604,2.856776,3.254066
3.286330,3.298569,2.864029,3.250037
3.286068,3.298509,2.851941,3.251648
3.286154,3.298614,2.860806,3.255678
3.286199,3.298559,2.854359,3.250843
3.286234,3.298484,2.857582,3.251648
3.286068,3.298514,2.851941,3.250037
3.286194,3.298584,2.852747,3.254066
3.286124,3.298715,2.856776,3.259707
3.286018,3.298524,2.854359,3.251648
3.286154,3.298619,2.855165,3.249231
3.286179,3.298574,2.858388,3.254066
3.286260,3.298574,2.857582,3.257289
3.286078,3.298388,2.852747,3.249231
3.286083,3.298519,2.854359,3.250843
3.286073,3.298554,2.851135,3.252454
3.286174,3.298579,2.857582,3.253260
3.285927,3.298418,2.851941,3.249231
3.286129,3.298609,2.856776,3.254066
3.286068,3.298554,2.853553,3.250843
3.285973,3.298463,2.856776,3.248425
3.285988,3.298499,2.849524,3.252454
3.286109,3.298519,2.849524,3.248425
3.286033,3.298655,2.851135,3.248425
3.285907,3.298483,2.848718,3.250037
3.285973,3.298509,2.849524,3.249231
3.286048,3.298478,2.852747,3.250037
3.286058,3.298534,2.853553,3.257289
3.285962,3.298398,2.851135,3.248425
3.285947,3.298529,2.851135,3.254066
3.286033,3.298509,2.850330,3.250843
3.286088,3.298519,2.857582,3.258901
3.285973,3.298428,2.848718,3.248425
3.286154,3.298529,2.855971,3.250843
3.286229,3.298564,2.854359,3.252454
3.286295,3.298564,2.858388,3.256484
3.286224,3.298549,2.854359,3.254066
3.286340,3.298665,2.866447,3.257289
3.286441,3.298750,2.868865,3.260513
3.286592,3.298675,2.873700,3.252454
3.286597,3.298725,2.872088,3.256484
3.286698,3.298725,2.875311,3.260513
3.286778,3.298796,2.876117,3.262125
3.286733,3.298725,2.876923,3.258901
3.286849,3.298841,2.879341,3.262125
3.286980,3.298801,2.889011,3.261319
3.287206,3.298806,2.892234,3.261319
3.287086,3.298745,2.890623,3.257289
3.287277,3.298841,2.893040,3.266154
3.287277,3.298831,2.890623,3.261319
3.287383,3.298700,2.900293,3.258901
3.287171,3.298786,2.888205,3.261319
3.287393,3.298831,2.888205,3.262125
3.287312,3.298897,2.894652,3.261319
3.287232,3.298836,2.895458,3.261319
3.287272,3.298811,2.894652,3.261319
3.287353,3.298851,2.897876,3.261319
3.287378,3.298927,2.893040,3.268571
3.287252,3.298791,2.891428,3.261319
3.287327,3.298897,2.894652,3.264542
3.287363,3.298841,2.894652,3.261319
3.287458,3.298831,2.899487,3.261319
3.287342,3.298776,2.896264,3.260513
3.287393,3.298816,2.892234,3.264542
3.287292,3.298826,2.894652,3.262125
3.287363,3.298861,2.891428,3.261319
3.287161,3.298791,2.889817,3.261319
3.287272,3.298856,2.889817,3.266960
3.287312,3.298811,2.894652,3.261319
3.287317,3.298791,2.898681,3.261319
3.287206,3.298791,2.890623,3.261319
3.287348,3.298856,2.896264,3.261319
3.287322,3.298947,2.893040,3.269377
3.287232,3.298781,2.889817,3.261319
3.287302,3.298952,2.894652,3.262125
3.287327,3.298846,2.897876,3.261319
3.287448,3.298886,2.893846,3.262125
3.287217,3.298740,2.893040,3.258901
3.287307,3.298801,2.891428,3.261319
3.287272,3.298816,2.893040,3.262125
3.287358,3.298831,2.895458,3.261319
3.287076,3.298806,2.889817,3.261319
3.287353,3.298861,2.897070,3.261319
3.287277,3.298836,2.894652,3.262125
3.287262,3.298786,2.897876,3.261319
3.287146,3.298796,2.889817,3.261319
3.287161,3.298796,2.893040,3.261319
3.287222,3.298957,2.893040,3.261319
3.286985,3.298786,2.882564,3.261319
3.287035,3.298781,2.889011,3.261319
3.287131,3.298801,2.889011,3.261319
3.287151,3.298831,2.888205,3.262930
3.286914,3.298735,2.879341,3.258901
3.286859,3.298851,2.881758,3.261319
3.286929,3.298791,2.878535,3.258095
3.287101,3.298766,2.889817,3.260513
3.286788,3.298705,2.879341,3.257289
3.286854,3.298856,2.880147,3.259707
3.286904,3.298791,2.878535,3.261319
3.286965,3.298720,2.878535,3.257289
3.286748,3.298761,2.876923,3.261319
3.286824,3.298791,2.878535,3.260513
3.286854,3.298881,2.881758,3.261319
3.286854,3.298755,2.872088,3.260513
3.286849,3.298801,2.878535,3.258901
3.286869,3.298791,2.882564,3.262125
3.286995,3.298851,2.881758,3.263736
3.286909,3.298755,2.881758,3.260513
3.286899,3.298841,2.881758,3.261319
3.286995,3.298801,2.888205,3.262125
3.287176,3.298851,2.890623,3.259707
3.286889,3.298781,2.890623,3.259707
3.287247,3.298806,2.893040,3.261319
3.287136,3.298816,2.889011,3.262930
3.287176,3.298735,2.890623,3.261319
3.286924,3.298796,2.879341,3.260513
3.287055,3.298866,2.893040,3.266154
3.287171,3.298902,2.889011,3.261319
3.287050,3.298791,2.876117,3.261319
3.287050,3.298796,2.882564,3.261319
3.287212,3.298831,2.888205,3.265348
3.287247,3.298957,2.894652,3.266960
3.287065,3.298791,2.883370,3.264542
3.287181,3.298851,2.889817,3.262125
3.287196,3.298841,2.897070,3.261319
3.287393,3.298826,2.897070,3.262125
3.287086,3.298776,2.893040,3.260513
3.287322,3.298831,2.895458,3.263736
3.287206,3.298826,2.892234,3.262930
3.287322,3.298771,2.891428,3.266154
3.287196,3.298871,2.894652,3.262125
3.287337,3.298841,2.895458,3.266960
3.287348,3.298881,2.896264,3.263736
3.287096,3.298806,2.896264,3.262125
3.287151,3.298826,2.882564,3.262125
3.287060,3.298881,2.879341,3.262125
3.287141,3.298927,2.889817,3.266960
3.286950,3.298791,2.883370,3.259707
3.287040,3.298861,2.882564,3.265348
3.287101,3.298836,2.888205,3.261319
3.287161,3.298866,2.889817,3.264542
3.287055,3.298786,2.888205,3.261319
3.287131,3.298816,2.888205,3.258095
3.287045,3.298836,2.889011,3.262930
3.287070,3.298781,2.884176,3.262930
3.286753,3.298755,2.879341,3.261319
3.286985,3.298831,2.875311,3.261319
3.286960,3.298816,2.884176,3.261319
3.286909,3.298786,2.880952,3.258901
3.286793,3.298781,2.874506,3.261319
3.286914,3.298796,2.878535,3.261319
3.286824,3.298856,2.878535,3.264542
3.286728,3.298725,2.876117,3.258095
3.286753,3.298846,2.877729,3.260513
3.286793,3.298796,2.879341,3.260513
3.286849,3.298786,2.874506,3.261319
3.286688,3.298685,2.874506,3.257289
3.286748,3.298766,2.874506,3.261319
3.286723,3.298771,2.876117,3.260513
3.286733,3.298730,2.876117,3.259707
3.286663,3.298710,2.870476,3.256484
3.286703,3.298745,2.871282,3.259707
3.286652,3.298766,2.873700,3.260513
3.286708,3.298680,2.874506,3.257289
3.286572,3.298735,2.870476,3.256484
3.286673,3.298740,2.874506,3.260513
3.286632,3.298816,2.870476,3.261319
3.286577,3.298670,2.876923,3.256484
3.286567,3.298730,2.869670,3.258901
3.286668,3.298761,2.873700,3.258901
3.286708,3.298811,2.872894,3.261319
3.286572,3.298614,2.871282,3.256484
3.286668,3.298766,2.871282,3.259707
3.286607,3.298750,2.872894,3.255678
3.286637,3.298735,2.874506,3.261319
3.286476,3.298619,2.872088,3.256484
3.286637,3.298725,2.873700,3.261319
3.286642,3.298725,2.872894,3.257289
3.286557,3.298680,2.872894,3.257289
3.286471,3.298650,2.864029,3.255678
3.286602,3.298730,2.870476,3.260513
3.286542,3.298791,2.870476,3.257289
3.286597,3.298660,2.874506,3.256484
3.286521,3.298685,2.868865,3.258095
3.286612,3.298695,2.868865,3.259707
3.286622,3.298781,2.868059,3.261319
3.286587,3.298579,2.869670,3.255678
3.286582,3.298720,2.865641,3.261319
3.286562,3.298725,2.872894,3.256484
3.286688,3.298766,2.871282,3.259707
3.286401,3.298594,2.872088,3.252454
3.286562,3.298761,2.872088,3.259707
3.286456,3.298705,2.867253,3.258901
3.286411,3.298685,2.860806,3.261319
3.286360,3.298589,2.860000,3.251648
3.286441,3.298645,2.861612,3.255678
3.286355,3.298660,2.862418,3.256484
3.286255,3.298594,2.864029,3.254066
3.286275,3.298569,2.860000,3.255678
3.286335,3.298630,2.870476,3.255678
3.286335,3.298730,2.864029,3.260513
3.286330,3.298599,2.863224,3.255678
3.286391,3.298715,2.864029,3.259707
3.286446,3.298715,2.861612,3.259707
3.286642,3.298730,2.874506,3.256484
3.286532,3.298569,2.864029,3.253260
3.286698,3.298740,2.873700,3.261319
3.286728,3.298745,2.875311,3.256484
3.286809,3.298761,2.874506,3.261319
3.286718,3.298745,2.874506,3.258901
3.286950,3.298786,2.879341,3.259707
3.286950,3.298781,2.889011,3.262125
3.287161,3.298776,2.883370,3.258095
3.287111,3.298801,2.888205,3.261319
3.287282,3.298861,2.897070,3.262125
3.287423,3.298982,2.896264,3.263736
3.287443,3.298816,2.895458,3.262930
3.287494,3.298932,2.900293,3.264542
3.287544,3.298897,2.902711,3.267766
3.287725,3.299078,2.904322,3.268571
3.287609,3.298811,2.901905,3.262125
3.287761,3.299007,2.901905,3.264542
3.287766,3.299027,2.907546,3.266960
3.287776,3.298992,2.913993,3.262930
3.287665,3.298957,2.901099,3.265348
3.287735,3.299027,2.910769,3.270183
3.287781,3.298992,2.909963,3.271795
3.287771,3.298967,2.922051,3.261319
3.287645,3.299002,2.905934,3.265348
3.287594,3.299098,2.909158,3.268571
3.287761,3.299158,2.909158,3.268571
3.287640,3.298962,2.903517,3.266960
3.287630,3.299017,2.901099,3.266960
3.287640,3.298972,2.902711,3.265348
3.287761,3.299063,2.904322,3.269377
3.287589,3.298856,2.901905,3.263736
3.287594,3.298957,2.901099,3.268571
3.287625,3.298907,2.901905,3.262930
3.287619,3.298972,2.900293,3.263736
3.287499,3.298861,2.902711,3.262125
3.287579,3.298952,2.902711,3.266960
3.287524,3.298967,2.900293,3.265348
3.287579,3.298866,2.907546,3.266154
3.287478,3.298902,2.899487,3.263736
3.287635,3.298947,2.900293,3.262125
3.287529,3.299068,2.901905,3.268571
3.287473,3.298912,2.900293,3.265348
3.287468,3.298907,2.899487,3.262125
3.287524,3.298876,2.900293,3.263736
3.287534,3.299022,2.900293,3.268571
3.287418,3.298816,2.899487,3.263736
3.287468,3.298927,2.899487,3.263736
3.287458,3.298922,2.899487,3.265348
3.287478,3.298982,2.900293,3.269377
3.287368,3.298806,2.895458,3.259707
3.287463,3.298861,2.900293,3.261319
3.287428,3.298902,2.898681,3.263736
3.287428,3.298801,2.889817,3.261319
3.287247,3.298796,2.894652,3.261319
3.287282,3.298897,2.895458,3.262930
3.287393,3.298937,2.892234,3.263736
3.287353,3.298821,2.897876,3.261319
3.287378,3.298826,2.895458,3.262125
3.287428,3.298866,2.898681,3.265348
3.287483,3.299022,2.899487,3.266960
3.287403,3.298836,2.897876,3.269377
3.287408,3.298891,2.897070,3.263736
3.287473,3.298917,2.898681,3.262930
3.287499,3.298846,2.901099,3.269377
3.287418,3.298791,2.901099,3.259707
3.287458,3.298841,2.900293,3.262930
3.287463,3.298902,2.900293,3.266154
3.287428,3.298831,2.897876,3.261319
3.287247,3.298831,2.891428,3.261319
3.287383,3.298876,2.894652,3.266960
3.287413,3.298871,2.893846,3.262930
3.287368,3.298816,2.902711,3.260513
3.287282,3.298816,2.892234,3.262125
3.287388,3.298861,2.893846,3.262930
3.287378,3.298972,2.896264,3.266960
3.287252,3.298811,2.894652,3.261319
3.287242,3.298886,2.892234,3.264542
3.287312,3.298836,2.894652,3.261319
3.287423,3.298912,2.898681,3.261319
3.287272,3.298715,2.889817,3.259707
3.287342,3.298861,2.889817,3.261319
3.287232,3.298831,2.889817,3.261319
3.287297,3.298811,2.889817,3.263736
3.286935,3.298786,2.882564,3.258901
3.287136,3.298851,2.898681,3.262125
3.287186,3.298831,2.889011,3.263736
3.287282,3.298801,2.880147,3.261319
3.287106,3.298811,2.884176,3.262125
3.287111,3.298821,2.898681,3.263736
3.287126,3.298907,2.889817,3.266960
3.287121,3.298786,2.878535,3.261319
3.287232,3.298902,2.883370,3.262125
3.287262,3.298801,2.891428,3.261319
3.287418,3.298932,2.897070,3.261319
3.287217,3.298771,2.890623,3.261319
3.287247,3.298886,2.889011,3.261319
3.287212,3.298826,2.895458,3.262930
3.287186,3.298821,2.895458,3.262125
3.286990,3.298791,2.883370,3.261319
3.287297,3.298846,2.892234,3.261319
3.287222,3.298821,2.894652,3.262125
3.287232,3.298816,2.883370,3.261319
3.287005,3.298821,2.881758,3.261319
3.287322,3.298836,2.881758,3.262125
3.287181,3.298932,2.888205,3.262930
3.287020,3.298786,2.888205,3.261319
3.287035,3.298826,2.881758,3.261319
3.287040,3.298846,2.889011,3.262930
3.287212,3.298881,2.890623,3.266154
3.287086,3.298781,2.880147,3.261319
3.287070,3.298841,2.883370,3.261319
3.287020,3.298846,2.888205,3.263736
3.287131,3.298876,2.888205,3.262125
3.286864,3.298786,2.883370,3.260513
3.287136,3.298826,2.888205,3.259707
3.287070,3.298831,2.884176,3.262125
3.287035,3.298781,2.876923,3.262930
3.286869,3.298801,2.880147,3.259707
3.287070,3.298801,2.890623,3.260513
3.287015,3.298897,2.888205,3.261319
3.286889,3.298791,2.881758,3.261319
3.286929,3.298781,2.879341,3.261319
3.286940,3.298796,2.883370,3.260513
3.286904,3.298841,2.880147,3.262930
3.286829,3.298730,2.875311,3.258901
3.286864,3.298801,2.879341,3.261319
3.286884,3.298781,2.879341,3.259707
3.286934,3.298897,2.884176,3.261319
3.286733,3.298735,2.875311,3.258095
3.286950,3.298781,2.876923,3.261319
3.286854,3.298791,2.878535,3.261319
3.286889,3.298720,2.880147,3.261319
3.286688,3.298786,2.876923,3.261319
3.286748,3.298781,2.876923,3.261319
3.286768,3.298826,2.874506,3.259707
3.286819,3.298786,2.876923,3.258901
3.286698,3.298781,2.873700,3.258095
3.286758,3.298786,2.874506,3.260513
3.286783,3.298846,2.877729,3.261319
3.286698,3.298761,2.874506,3.257289
3.286673,3.298801,2.874506,3.260513
3.286708,3.298755,2.874506,3.261319
3.286763,3.298740,2.878535,3.261319
3.286627,3.298675,2.877729,3.256484
3.286708,3.298771,2.874506,3.261319
3.286683,3.298766,2.874506,3.261319
3.286723,3.298755,2.878535,3.251648
3.286582,3.298735,2.868865,3.259707
3.286657,3.298776,2.872894,3.261319
3.286673,3.298786,2.875311,3.261319
3.286602,3.298745,2.879341,3.260513
3.286642,3.298776,2.872894,3.260513
3.286728,3.298776,2.870476,3.261319
3.286698,3.298851,2.872894,3.261319
3.286673,3.298705,2.872088,3.256484
3.286622,3.298806,2.874506,3.259707
3.286688,3.298796,2.873700,3.258901
3.286773,3.298755,2.877729,3.261319
3.286678,3.298700,2.873700,3.257289
3.286698,3.298771,2.873700,3.259707
3.286713,3.298791,2.876923,3.261319
3.286657,3.298761,2.874506,3.265348
3.286587,3.298745,2.872894,3.258901
3.286723,3.298806,2.874506,3.261319
3.286708,3.298786,2.873700,3.261319
3.286743,3.298766,2.876923,3.255678
3.286758,3.298776,2.874506,3.261319
3.286758,3.298801,2.883370,3.261319
3.286945,3.298967,2.881758,3.268571
3.286950,3.298791,2.878535,3.261319
3.287005,3.298876,2.883370,3.261319
3.287171,3.298891,2.891428,3.263736
3.287368,3.299017,2.891428,3.262930
3.287292,3.298791,2.893040,3.261319
3.287458,3.298962,2.898681,3.264542
3.287468,3.298952,2.902711,3.262930
3.287564,3.298912,2.904322,3.266154
3.287539,3.298972,2.898681,3.262930
3.287710,3.298982,2.903517,3.263736
3.287755,3.299043,2.912381,3.270183
3.287811,3.298932,2.909158,3.270183
3.287806,3.299088,2.909158,3.266960
3.287907,3.299108,2.911575,3.270183
3.287922,3.299209,2.918022,3.270183
3.287876,3.299073,2.911575,3.268571
3.287962,3.299158,2.913187,3.271795
3.288083,3.299158,2.921245,3.274212
3.288128,3.299234,2.913993,3.279854
3.288017,3.299027,2.918022,3.267766
3.288083,3.299168,2.918022,3.271795
3.288098,3.299174,2.917216,3.273407
3.288174,3.299199,2.922051,3.276630
3.288017,3.299073,2.922857,3.265348
3.288113,3.299168,2.921245,3.268571
3.288088,3.299143,2.917216,3.273407
3.287977,3.299017,2.925275,3.270183
3.287932,3.299133,2.911575,3.272601
3.287952,3.299148,2.918022,3.270989
3.288043,3.299244,2.917216,3.274212
3.287861,3.299088,2.912381,3.269377
3.287977,3.299088,2.914798,3.269377
3.287997,3.299199,2.918022,3.272601
3.287997,3.299249,2.917216,3.274212
3.287932,3.298987,2.911575,3.266960
3.287937,3.299163,2.913993,3.275018
3.287942,3.299123,2.917216,3.270989
3.288032,3.299138,2.918828,3.275824
3.287897,3.299017,2.914798,3.266154
3.288012,3.299158,2.913187,3.265348
3.288007,3.299108,2.917216,3.270989
3.288078,3.299204,2.921245,3.269377
3.287826,3.299022,2.912381,3.270183
3.288053,3.299143,2.917216,3.269377
3.287932,3.299128,2.913187,3.274212
3.287917,3.299048,2.921245,3.268571
3.287831,3.299058,2.909963,3.270183
3.287831,3.299138,2.908352,3.270183
3.287871,3.299199,2.912381,3.273407
3.287826,3.299058,2.912381,3.270183
3.287806,3.299118,2.911575,3.274212
3.287866,3.299108,2.912381,3.267766
3.287992,3.299103,2.915604,3.266960
3.287750,3.298922,2.908352,3.266154
3.287856,3.299032,2.909158,3.274212
3.287851,3.299098,2.911575,3.270183
3.287881,3.298982,2.911575,3.274212
3.287599,3.299002,2.905934,3.268571
3.287735,3.299113,2.910769,3.270183
3.287786,3.299093,2.908352,3.270183
3.287725,3.298962,2.909963,3.266154
3.287609,3.298997,2.903517,3.268571
3.287685,3.299022,2.909158,3.270183
3.287690,3.299133,2.908352,3.272601
3.287640,3.298937,2.902711,3.266960
3.287720,3.299103,2.906740,3.269377
3.287715,3.299048,2.907546,3.266154
3.287886,3.299068,2.912381,3.275018
3.287695,3.298957,2.908352,3.264542
3.287831,3.299007,2.907546,3.266960
3.287740,3.299088,2.910769,3.266154
3.287947,3.299073,2.909158,3.263736
3.287660,3.298997,2.904322,3.263736
3.287846,3.299098,2.910769,3.269377
3.287781,3.299053,2.909963,3.270183
3.287771,3.299007,2.908352,3.267766
3.287715,3.299017,2.909963,3.266154
3.287781,3.299058,2.910769,3.269377
3.287771,3.299209,2.909158,3.271795
3.287720,3.299007,2.910769,3.266154
3.287710,3.299113,2.905934,3.268571
3.287766,3.299113,2.910769,3.265348
3.287846,3.299113,2.908352,3.272601
3.287665,3.298952,2.909158,3.262125
3.287655,3.299053,2.907546,3.266154
3.287755,3.299093,2.903517,3.271795
3.287881,3.299083,2.912381,3.275018
3.287675,3.298957,2.912381,3.263736
3.287796,3.299017,2.909158,3.269377
3.287750,3.299068,2.910769,3.268571
3.287665,3.299022,2.905128,3.268571
3.287584,3.299012,2.905128,3.265348
3.287670,3.299113,2.903517,3.266960
3.287705,3.299143,2.902711,3.270183
3.287680,3.298977,2.907546,3.265348
3.287650,3.298967,2.901099,3.266960
3.287750,3.299083,2.909158,3.269377
3.287745,3.299184,2.905128,3.272601
3.287594,3.298932,2.902711,3.265348
3.287660,3.299133,2.897876,3.272601
3.287619,3.299017,2.905128,3.268571
3.287745,3.299007,2.909158,3.272601
3.287468,3.298876,2.900293,3.263736
3.287579,3.298987,2.902711,3.271795
3.287529,3.298932,2.901905,3.266154
3.287614,3.298861,2.901905,3.261319
3.287433,3.298897,2.896264,3.262125
3.287554,3.298942,2.901099,3.262930
3.287509,3.298997,2.898681,3.263736
3.287569,3.298897,2.899487,3.263736
3.287403,3.298886,2.897070,3.265348
3.287433,3.298932,2.896264,3.266960
3.287438,3.299043,2.899487,3.268571
3.287327,3.298836,2.895458,3.263736
3.287317,3.298942,2.897876,3.265348
3.287307,3.298907,2.894652,3.266154
3.287378,3.298927,2.897070,3.263736
3.287121,3.298781,2.889817,3.260513
3.287267,3.298897,2.891428,3.258901
3.287217,3.298866,2.894652,3.261319
3.287191,3.298715,2.889817,3.258095
3.286924,3.298801,2.881758,3.261319
3.287040,3.298876,2.882564,3.268571
3.287126,3.298836,2.882564,3.262930
3.286975,3.298806,2.879341,3.261319
3.286955,3.298801,2.880147,3.261319
3.287156,3.298846,2.888205,3.261319
3.286965,3.298932,2.883370,3.268571
3.286869,3.298781,2.883370,3.258901
3.286935,3.298907,2.882564,3.261319
3.286970,3.298866,2.883370,3.261319
3.287116,3.298881,2.891428,3.263736
3.286753,3.298735,2.876923,3.258901
3.286894,3.298856,2.880147,3.268571
3.286859,3.298826,2.876117,3.261319
3.286909,3.298771,2.875311,3.257289
3.286693,3.298781,2.872894,3.260513
3.286783,3.298811,2.879341,3.260513
3.286723,3.298791,2.879341,3.261319
3.287010,3.298776,2.881758,3.260513
3.286713,3.298766,2.874506,3.260513
3.286874,3.298821,2.884176,3.261319
3.286753,3.298891,2.876117,3.266154
3.286738,3.298781,2.874506,3.258095
3.286773,3.298841,2.878535,3.260513
3.286748,3.298771,2.875311,3.261319
3.286839,3.298776,2.877729,3.265348
3.286673,3.298675,2.872894,3.260513
3.286708,3.298801,2.874506,3.256484
3.286713,3.298766,2.874506,3.261319
3.286819,3.298690,2.876923,3.261319
3.286547,3.298670,2.869670,3.258095
3.286657,3.298771,2.872088,3.259707
3.286683,3.298781,2.872088,3.260513
3.286612,3.298705,2.872088,3.261319
3.286441,3.298690,2.864029,3.254066
3.286496,3.298705,2.866447,3.257289
3.286436,3.298761,2.869670,3.258901
3.286355,3.298650,2.857582,3.254066
3.286325,3.298680,2.860000,3.257289
3.286375,3.298675,2.855971,3.252454
3.286416,3.298700,2.860000,3.259707
3.286280,3.298514,2.858388,3.250843
3.286260,3.298675,2.860000,3.257289
3.286315,3.298650,2.856776,3.255678
3.286335,3.298665,2.867253,3.260513
3.286139,3.298549,2.858388,3.249231
3.286345,3.298655,2.864029,3.253260
3.286265,3.298650,2.861612,3.258901
3.286300,3.298509,2.872088,3.257289
3.286260,3.298589,2.859194,3.253260
3.286355,3.298720,2.862418,3.256484
3.286511,3.298735,2.866447,3.258901
3.286622,3.298745,2.863224,3.255678
3.286688,3.298740,2.871282,3.261319
3.286743,3.298801,2.879341,3.261319
3.286919,3.298851,2.877729,3.262125
3.286940,3.298781,2.876923,3.265348
3.287070,3.298957,2.888205,3.261319
3.287282,3.298881,2.893040,3.262125
3.287483,3.298952,2.899487,3.261319
3.287408,3.298831,2.896264,3.261319
3.287519,3.298982,2.900293,3.268571
3.287534,3.298982,2.901099,3.263736
3.287599,3.298886,2.901099,3.263736
3.287514,3.298962,2.899487,3.265348
3.287710,3.299012,2.901905,3.265348
3.287640,3.299027,2.904322,3.268571
3.287564,3.298982,2.907546,3.265348
3.287614,3.299002,2.904322,3.265348
3.287695,3.299058,2.901905,3.269377
3.287700,3.299103,2.905128,3.271795
3.287609,3.298937,2.904322,3.263736
3.287680,3.299058,2.905934,3.270183
3.287645,3.299027,2.906740,3.266154
3.287781,3.299073,2.911575,3.268571
3.287579,3.298836,2.905934,3.263736
3.287720,3.298927,2.903517,3.265348
3.287640,3.298977,2.905128,3.262125
3.287670,3.298886,2.907546,3.261319
3.287519,3.298897,2.900293,3.262930
3.287630,3.298977,2.903517,3.268571
3.287584,3.298922,2.903517,3.262930
3.287509,3.298831,2.899487,3.262125
3.287473,3.298897,2.900293,3.262930
3.287554,3.298917,2.901905,3.266960
3.287499,3.299007,2.897876,3.268571
3.287453,3.298891,2.900293,3.264542
3.287448,3.298962,2.900293,3.264542
3.287463,3.298897,2.900293,3.261319
3.287534,3.298861,2.899487,3.270183
3.287242,3.298791,2.897876,3.260513
3.287408,3.298907,2.897876,3.262930
3.287403,3.298871,2.896264,3.262125
3.287398,3.298897,2.898681,3.261319
3.287191,3.298801,2.893040,3.259707
3.287368,3.298871,2.895458,3.260513
3.287272,3.298846,2.891428,3.261319
3.287438,3.298801,2.894652,3.261319
3.287191,3.298801,2.882564,3.261319
3.287267,3.298811,2.892234,3.261319
3.287222,3.298987,2.891428,3.261319
3.287247,3.298791,2.878535,3.260513
3.287126,3.298826,2.889817,3.261319
3.287136,3.298801,2.888205,3.262125
3.287191,3.298861,2.891428,3.261319
3.287035,3.298725,2.882564,3.259707
3.287030,3.298851,2.889011,3.261319
3.287151,3.298816,2.884176,3.260513
3.287212,3.298766,2.891428,3.261319
3.286934,3.298776,2.880147,3.260513
3.287161,3.298902,2.892234,3.259707
3.287091,3.298806,2.883370,3.261319
3.287156,3.298781,2.894652,3.257289
3.286985,3.298801,2.877729,3.261319
3.287201,3.298806,2.878535,3.261319
3.287121,3.298902,2.890623,3.264542
3.287055,3.298816,2.889011,3.260513
3.287146,3.298816,2.884176,3.261319
3.287146,3.298841,2.889011,3.265348
3.287302,3.298886,2.889011,3.263736
3.287186,3.298776,2.888205,3.261319
3.287181,3.298841,2.889011,3.263736
3.287267,3.298856,2.889817,3.265348
3.287368,3.298912,2.896264,3.270183
3.287171,3.298781,2.895458,3.261319
3.287358,3.298932,2.895458,3.262125
3.287262,3.298876,2.892234,3.263736
3.287463,3.298816,2.891428,3.261319
3.287191,3.298846,2.889011,3.262125
3.287418,3.298902,2.899487,3.261319
3.287322,3.298907,2.899487,3.263736
3.287076,3.298811,2.896264,3.262125
3.287257,3.298846,2.889817,3.262930
3.287368,3.298881,2.895458,3.262930
3.287368,3.299007,2.896264,3.265348
3.287287,3.298826,2.891428,3.261319
3.287342,3.298932,2.896264,3.262930
3.287327,3.298876,2.892234,3.265348
3.287413,3.298922,2.897876,3.268571
3.287156,3.298781,2.888205,3.261319
3.287322,3.298886,2.896264,3.261319
3.287196,3.298866,2.891428,3.261319
3.287282,3.298886,2.889011,3.260513
3.287060,3.298811,2.884176,3.260513
3.287212,3.298791,2.889011,3.264542
3.287141,3.298836,2.889011,3.261319
3.286940,3.298791,2.888205,3.259707
3.286935,3.298791,2.880147,3.260513
3.286904,3.298796,2.878535,3.261319
3.286879,3.298851,2.882564,3.264542
3.286814,3.298766,2.876923,3.260513
3.286814,3.298806,2.876923,3.261319
3.286778,3.298801,2.878535,3.261319
3.286874,3.298796,2.882564,3.261319
3.286723,3.298670,2.874506,3.256484
3.286763,3.298811,2.879341,3.261319
3.286814,3.298776,2.875311,3.261319
3.286799,3.298786,2.882564,3.262930
3.286698,3.298766,2.874506,3.256484
3.286708,3.298771,2.876117,3.257289
3.286748,3.298791,2.874506,3.260513
3.286879,3.298750,2.874506,3.258901
3.286713,3.298776,2.874506,3.258901
3.286708,3.298791,2.877729,3.261319
3.286743,3.298912,2.874506,3.264542
3.286703,3.298740,2.876923,3.258901
3.286718,3.298811,2.874506,3.259707
3.286809,3.298791,2.876117,3.260513
3.286924,3.298821,2.878535,3.260513
3.286728,3.298690,2.876117,3.258901
3.286743,3.298776,2.875311,3.261319
3.286738,3.298791,2.875311,3.260513
3.286788,3.298680,2.875311,3.258901
3.286663,3.298745,2.874506,3.258095
3.286748,3.298761,2.872088,3.261319
3.286703,3.298776,2.875311,3.260513
3.286622,3.298650,2.876117,3.258901
3.286637,3.298705,2.869670,3.256484
3.286597,3.298761,2.871282,3.260513
3.286673,3.298806,2.872894,3.257289
3.286582,3.298700,2.873700,3.257289
3.286642,3.298740,2.872088,3.257289
3.286698,3.298761,2.874506,3.261319
3.286758,3.298821,2.873700,3.261319
3.286652,3.298655,2.874506,3.257289
3.286683,3.298791,2.873700,3.261319
3.286708,3.298791,2.874506,3.259707
3.286728,3.298745,2.877729,3.265348
3.286572,3.298700,2.872894,3.255678
3.286698,3.298796,2.874506,3.257289
3.286663,3.298740,2.872088,3.261319
3.286647,3.298645,2.874506,3.254066
3.286506,3.298740,2.869670,3.258901
3.286647,3.298766,2.874506,3.262125
3.286632,3.298766,2.872894,3.258095
3.286532,3.298670,2.872088,3.254066
3.286537,3.298735,2.868865,3.255678
3.286516,3.298730,2.874506,3.260513
3.286587,3.298786,2.868865,3.261319
3.286527,3.298599,2.868865,3.258901
3.286446,3.298781,2.868865,3.258901
3.286547,3.298705,2.864835,3.258901
3.286542,3.298660,2.870476,3.260513
3.286310,3.298544,2.865641,3.250843
3.286441,3.298735,2.865641,3.260513
3.286365,3.298660,2.866447,3.254066
3.286315,3.298519,2.870476,3.258095
3.286219,3.298584,2.859194,3.251648
3.286360,3.298630,2.862418,3.258095
3.286280,3.298650,2.858388,3.254872
3.286129,3.298584,2.863224,3.252454
3.286204,3.298609,2.857582,3.253260
3.286239,3.298574,2.861612,3.254066
3.286169,3.298700,2.860000,3.258095
3.286114,3.298458,2.853553,3.250843
3.286068,3.298700,2.855971,3.253260
3.286144,3.298579,2.857582,3.255678
3.286229,3.298594,2.857582,3.259707
3.286038,3.298423,2.851135,3.248425
3.286174,3.298509,2.854359,3.253260
3.286124,3.298584,2.861612,3.252454
3.286260,3.298489,2.855971,3.249231
3.286058,3.298529,2.852747,3.254066
3.286250,3.298645,2.864029,3.249231
3.286355,3.298670,2.859194,3.254066
3.286335,3.298589,2.858388,3.254066
3.286486,3.298675,2.864029,3.256484
3.286713,3.298745,2.872088,3.260513
3.286693,3.298826,2.873700,3.264542
3.286698,3.298730,2.874506,3.257289
3.286763,3.298831,2.874506,3.261319
3.286950,3.298826,2.877729,3.261319
3.287247,3.298846,2.880147,3.261319
3.287060,3.298735,2.883370,3.258095
3.287292,3.298876,2.889011,3.261319
3.287252,3.298902,2.895458,3.262930
3.287428,3.298821,2.896264,3.265348
3.287212,3.298796,2.894652,3.262125
3.287438,3.298866,2.900293,3.268571
3.287478,3.298891,2.899487,3.263736
3.287458,3.298836,2.900293,3.259707
3.287368,3.298886,2.897876,3.261319
3.287504,3.298891,2.895458,3.265348
3.287478,3.299038,2.898681,3.266960
3.287418,3.298876,2.890623,3.261319
3.287433,3.298886,2.896264,3.262125
3.287438,3.298927,2.897876,3.261319
3.287504,3.298861,2.899487,3.261319
3.287312,3.298781,2.894652,3.260513
3.287312,3.298881,2.893846,3.264542
3.287358,3.298836,2.892234,3.262125
3.287388,3.298876,2.896264,3.261319
3.287196,3.298786,2.888205,3.259707
3.287317,3.298866,2.896264,3.262125
3.287262,3.298816,2.890623,3.261319
3.287070,3.298771,2.897070,3.257289
3.287065,3.298801,2.883370,3.261319
3.287050,3.298806,2.890623,3.261319
3.287156,3.298917,2.884176,3.261319
3.287025,3.298801,2.897070,3.261319
3.287025,3.298796,2.880147,3.261319
3.287151,3.298841,2.888205,3.262125
3.287166,3.298897,2.882564,3.262930
3.287045,3.298761,2.883370,3.261319
3.287040,3.298871,2.884982,3.261319
3.287045,3.298861,2.891428,3.261319
3.287196,3.298776,2.889011,3.261319
3.286809,3.298735,2.881758,3.257289
3.287015,3.298826,2.881758,3.262930
3.286980,3.298786,2.881758,3.260513
3.287010,3.298655,2.877729,3.259707
3.286738,3.298761,2.876117,3.259707
3.286738,3.298776,2.889817,3.260513
3.286783,3.298791,2.876923,3.260513
3.286668,3.298771,2.869670,3.256484
3.286693,3.298766,2.874506,3.255678
3.286673,3.298776,2.875311,3.259707
3.286708,3.298781,2.874506,3.261319
3.286663,3.298645,2.872894,3.259707
3.286657,3.298771,2.872894,3.261319
3.286647,3.298755,2.871282,3.258901
3.286718,3.298786,2.874506,3.253260
3.286607,3.298640,2.868865,3.252454
3.286673,3.298720,2.875311,3.261319
3.286642,3.298750,2.871282,3.255678
3.286597,3.298665,2.867253,3.257289
3.286446,3.298660,2.866447,3.254066
3.286668,3.298720,2.873700,3.260513
3.286617,3.298725,2.872894,3.256484
3.286632,3.298670,2.865641,3.255678
3.286557,3.298665,2.867253,3.260513
3.286607,3.298750,2.874506,3.258095
3.286642,3.298796,2.871282,3.261319
3.286627,3.298710,2.870476,3.253260
3.286587,3.298745,2.869670,3.259707
3.286632,3.298725,2.871282,3.258901
3.286688,3.298796,2.875311,3.261319
3.286602,3.298559,2.868865,3.252454
3.286663,3.298675,2.873700,3.254872
3.286567,3.298745,2.872088,3.258901
3.286693,3.298715,2.874506,3.260513
3.286511,3.298655,2.868865,3.256484
3.286647,3.298670,2.874506,3.252454
3.286668,3.298761,2.872088,3.257289
3.286552,3.298700,2.870476,3.256484
3.286532,3.298725,2.870476,3.258095
3.286567,3.298730,2.873700,3.260513
3.286607,3.298791,2.870476,3.262930
3.286542,3.298725,2.869670,3.257289
3.286542,3.298715,2.870476,3.258095
3.286597,3.298720,2.869670,3.254066
3.286678,3.298745,2.874506,3.261319
3.286486,3.298599,2.868059,3.250037
3.286567,3.298740,2.872088,3.260513
3.286537,3.298730,2.868865,3.261319
3.286567,3.298650,2.870476,3.257289
3.286325,3.298630,2.860000,3.251648
3.286562,3.298705,2.867253,3.256484
3.286386,3.298670,2.867253,3.256484
3.286461,3.298544,2.862418,3.250037
3.286295,3.298609,2.862418,3.254872
3.286300,3.298680,2.865641,3.258095
3.286436,3.298781,2.865641,3.257289
3.286260,3.298544,2.868865,3.255678
3.286310,3.298635,2.862418,3.254066
3.286340,3.298670,2.864835,3.254066
3.286396,3.298695,2.862418,3.258901
3.286340,3.298559,2.860806,3.254066
3.286295,3.298680,2.862418,3.257289
3.286260,3.298640,2.865641,3.258901
3.286401,3.298630,2.865641,3.262125
3.286260,3.298584,2.864029,3.251648
3.286355,3.298625,2.861612,3.250037
3.286330,3.298645,2.861612,3.256484
3.286426,3.298539,2.857582,3.250843
3.286239,3.298584,2.856776,3.254066
3.286280,3.298665,2.861612,3.256484
3.286406,3.298745,2.866447,3.258901
3.286396,3.298604,2.861612,3.253260
3.286325,3.298630,2.862418,3.259707
3.286396,3.298675,2.868865,3.255678
3.286406,3.298755,2.860806,3.260513
3.286355,3.298559,2.860806,3.253260
3.286340,3.298680,2.864029,3.258095
3.286401,3.298690,2.862418,3.259707
3.286491,3.298670,2.868059,3.261319
3.286365,3.298614,2.860000,3.250037
3.286391,3.298715,2.864029,3.256484
3.286380,3.298680,2.863224,3.257289
3.286431,3.298529,2.860806,3.255678
3.286234,3.298645,2.857582,3.253260
3.286365,3.298660,2.863224,3.252454
3.286370,3.298710,2.864029,3.256484
3.286340,3.298665,2.870476,3.255678
3.286345,3.298645,2.860806,3.256484
3.286386,3.298730,2.865641,3.257289
3.286421,3.298771,2.868059,3.261319
3.286360,3.298645,2.862418,3.254872
3.286411,3.298776,2.865641,3.257289
3.286411,3.298710,2.866447,3.256484
3.286562,3.298761,2.872088,3.258901
3.286421,3.298599,2.864029,3.255678
3.286446,3.298680,2.863224,3.260513
3.286380,3.298690,2.860806,3.255678
3.286466,3.298554,2.872088,3.258901
3.286199,3.298630,2.860806,3.253260
3.286330,3.298680,2.865641,3.257289
3.286265,3.298630,2.860000,3.252454
3.286224,3.298549,2.860000,3.252454
3.286048,3.298564,2.855971,3.251648
3.286098,3.298569,2.856776,3.255678
3.286033,3.298650,2.850330,3.258901
3.285922,3.298428,2.851941,3.249231
3.285907,3.298564,2.850330,3.250843
3.285902,3.298529,2.849524,3.250843
3.285973,3.298554,2.848718,3.250843
3.285826,3.298378,2.848718,3.248425
3.285857,3.298484,2.844689,3.250037
3.285771,3.298448,2.839854,3.250037
3.285811,3.298438,2.847912,3.251648
3.285605,3.298398,2.839048,3.246813
3.285831,3.298418,2.841465,3.248425
3.285746,3.298423,2.844689,3.249231
3.285695,3.298418,2.847106,3.246813
3.285640,3.298403,2.839854,3.248425
3.285837,3.298489,2.845495,3.248425
3.285837,3.298650,2.847106,3.251648
3.285882,3.298423,2.849524,3.248425
3.285872,3.298529,2.848718,3.250037
3.285983,3.298519,2.851135,3.252454
3.286265,3.298705,2.857582,3.257289
3.286154,3.298478,2.856776,3.251648
3.286280,3.298680,2.863224,3.255678
3.286370,3.298700,2.862418,3.260513
3.286577,3.298705,2.869670,3.258901
3.286456,3.298660,2.865641,3.256484
3.286688,3.298750,2.873700,3.261319
3.286708,3.298776,2.876117,3.260513
3.286743,3.298720,2.876923,3.257289
3.286718,3.298781,2.874506,3.260513
3.286889,3.298786,2.880147,3.258901
3.286955,3.298907,2.879341,3.261319
3.286879,3.298796,2.877729,3.261319
3.286945,3.298811,2.882564,3.261319
3.287237,3.298891,2.889817,3.263736
3.287332,3.298977,2.890623,3.265348
3.287237,3.298811,2.889817,3.263736
3.287297,3.298907,2.895458,3.263736
3.287398,3.298942,2.895458,3.263736
3.287478,3.298962,2.900293,3.263736
3.287277,3.298816,2.892234,3.260513
3.287373,3.298881,2.898681,3.261319
3.287348,3.298891,2.890623,3.263736
3.287403,3.298846,2.893040,3.263736
3.287181,3.298821,2.889817,3.260513
3.287327,3.298886,2.891428,3.262930
3.287262,3.298942,2.894652,3.266154
3.287292,3.298836,2.889817,3.261319
3.287166,3.298826,2.889817,3.262125
3.287242,3.298826,2.890623,3.261319
3.287212,3.298957,2.891428,3.264542
3.287096,3.298826,2.889011,3.264542
3.287196,3.298891,2.888205,3.262125
3.287131,3.298811,2.891428,3.262930
3.287337,3.298917,2.892234,3.261319
3.287111,3.298786,2.889817,3.258095
3.287186,3.298851,2.888205,3.261319
3.287126,3.298861,2.888205,3.262930
3.287161,3.298796,2.889817,3.263736
3.286955,3.298821,2.880147,3.260513
3.287227,3.298881,2.897876,3.263736
3.287116,3.298861,2.889011,3.263736
3.287076,3.298831,2.883370,3.261319
3.286945,3.298841,2.888205,3.261319
3.287076,3.298871,2.883370,3.262930
3.287181,3.298927,2.891428,3.267766
3.287116,3.298796,2.889011,3.261319
3.287106,3.298891,2.883370,3.261319
3.287116,3.298846,2.889011,3.265348
3.287302,3.298861,2.894652,3.261319
3.287040,3.298781,2.882564,3.260513
3.287060,3.298891,2.888205,3.262125
3.286919,3.298821,2.876923,3.263736
3.287106,3.298750,2.889011,3.259707
3.286793,3.298776,2.877729,3.258095
3.286879,3.298796,2.882564,3.262125
3.286919,3.298831,2.882564,3.261319
3.286955,3.298796,2.881758,3.259707
3.286814,3.298791,2.876923,3.259707
3.286924,3.298836,2.876923,3.262125
3.286904,3.298932,2.881758,3.265348
3.286839,3.298831,2.875311,3.261319
3.286829,3.298841,2.877729,3.261319
3.286819,3.298786,2.875311,3.261319
3.286995,3.298881,2.888205,3.261319
3.286748,3.298740,2.874506,3.256484
3.286834,3.298806,2.876117,3.260513
3.286793,3.298791,2.876923,3.261319
3.286783,3.298761,2.880147,3.258901
3.286698,3.298725,2.872894,3.259707
3.286844,3.298761,2.874506,3.260513
3.286763,3.298781,2.876117,3.261319
3.286733,3.298725,2.880147,3.261319
3.286637,3.298771,2.870476,3.259707
3.286763,3.298791,2.872894,3.261319
3.286723,3.298846,2.874506,3.262125
3.286703,3.298735,2.872088,3.260513
3.286683,3.298766,2.872088,3.258901
3.286703,3.298796,2.874506,3.257289
3.286738,3.298786,2.874506,3.259707
3.286683,3.298685,2.874506,3.256484
3.286668,3.298766,2.874506,3.259707
3.286668,3.298761,2.875311,3.259707
3.286723,3.298776,2.875311,3.262125
3.286602,3.298700,2.872088,3.258901
3.286693,3.298766,2.873700,3.257289
3.286678,3.298781,2.874506,3.258901
3.286668,3.298665,2.868059,3.255678
3.286527,3.298740,2.868059,3.255678
3.286642,3.298781,2.874506,3.259707
3.286617,3.298786,2.867253,3.260513
3.286461,3.298720,2.865641,3.258901
3.286471,3.298690,2.866447,3.258901
3.286537,3.298740,2.866447,3.255678
3.286567,3.298776,2.865641,3.260513
3.286416,3.298645,2.864029,3.257289
3.286441,3.298745,2.861612,3.260513
3.286486,3.298735,2.865641,3.260513
3.286572,3.298776,2.872894,3.260513
3.286406,3.298625,2.863224,3.252454
3.286461,3.298761,2.870476,3.252454
3.286386,3.298745,2.865641,3.256484
3.286481,3.298569,2.872088,3.248425
3.286325,3.298645,2.864029,3.257289
3.286426,3.298730,2.865641,3.258901
3.286411,3.298740,2.865641,3.259707
3.286421,3.298660,2.872894,3.257289
3.286285,3.298670,2.862418,3.255678
3.286436,3.298710,2.868059,3.256484
3.286416,3.298766,2.863224,3.259707
3.286270,3.298655,2.862418,3.260513
3.286335,3.298750,2.862418,3.260513
3.286375,3.298670,2.863224,3.258901
3.286436,3.298710,2.866447,3.258901
3.286320,3.298554,2.860806,3.251648
3.286380,3.298720,2.861612,3.257289
3.286355,3.298705,2.860000,3.259707
3.286315,3.298630,2.860000,3.256484
3.286159,3.298604,2.855165,3.254066
3.286295,3.298670,2.864029,3.258901
3.286244,3.298695,2.854359,3.257289
3.286174,3.298594,2.855971,3.253260
3.286179,3.298625,2.857582,3.252454
3.286209,3.298665,2.860806,3.252454
3.286265,3.298750,2.860000,3.261319
3.286199,3.298599,2.856776,3.252454
3.286199,3.298735,2.856776,3.255678
3.286285,3.298645,2.862418,3.252454
3.286401,3.298740,2.860000,3.258901
3.286204,3.298549,2.859194,3.256484
3.286255,3.298740,2.863224,3.258095
3.286250,3.298690,2.864029,3.254066
3.286285,3.298584,2.864029,3.254066
3.286209,3.298640,2.859194,3.256484
3.286345,3.298755,2.862418,3.255678
3.286350,3.298690,2.864835,3.258095
3.286305,3.298665,2.864029,3.255678
3.286295,3.298700,2.859194,3.256484
3.286401,3.298735,2.864835,3.259707
3.286380,3.298786,2.861612,3.258901
3.286295,3.298655,2.863224,3.257289
3.286370,3.298740,2.863224,3.257289
3.286391,3.298776,2.865641,3.254066
3.286501,3.298720,2.864029,3.258901
3.286421,3.298630,2.862418,3.254066
3.286426,3.298710,2.864029,3.259707
3.286476,3.298710,2.865641,3.259707
3.286552,3.298725,2.866447,3.261319
3.286345,3.298715,2.865641,3.256484
3.286532,3.298755,2.873700,3.261319
3.286461,3.298735,2.865641,3.259707
3.286421,3.298715,2.872088,3.258901
3.286360,3.298680,2.864029,3.258901
3.286315,3.298755,2.865641,3.260513
3.286446,3.298831,2.867253,3.259707
3.286461,3.298720,2.866447,3.256484
3.286330,3.298705,2.861612,3.259707
3.286431,3.298766,2.867253,3.259707
3.286421,3.298781,2.865641,3.260513
3.286265,3.298635,2.862418,3.255678
3.286295,3.298730,2.863224,3.255678
3.286391,3.298715,2.861612,3.258901
3.286441,3.298755,2.864835,3.258901
3.286280,3.298625,2.859194,3.253260
3.286365,3.298710,2.864835,3.252454
3.286370,3.298725,2.861612,3.259707
3.286320,3.298660,2.860806,3.260513
3.286320,3.298715,2.860000,3.256484
3.286521,3.298766,2.868865,3.260513
3.286582,3.298786,2.873700,3.261319
3.286501,3.298766,2.872894,3.261319
3.286632,3.298776,2.868865,3.258901
3.286738,3.298801,2.875311,3.261319
3.286819,3.298922,2.876923,3.262125
3.286884,3.298786,2.881758,3.261319
3.286995,3.298932,2.881758,3.264542
3.287332,3.298922,2.890623,3.264542
3.287423,3.298912,2.900293,3.266960
3.287302,3.298831,2.895458,3.261319
3.287514,3.299063,2.897876,3.265348
3.287509,3.299048,2.899487,3.268571
3.287509,3.298962,2.900293,3.266154
3.287458,3.298902,2.897876,3.266154
3.287544,3.299038,2.900293,3.269377
3.287630,3.299063,2.905128,3.270183
3.287534,3.298967,2.907546,3.265348
3.287599,3.299032,2.904322,3.266960
3.287730,3.299073,2.903517,3.269377
3.287755,3.299184,2.910769,3.272601
3.287715,3.299022,2.906740,3.266154
3.287811,3.299158,2.908352,3.268571
3.287846,3.299123,2.909963,3.270183
3.287912,3.299194,2.917216,3.273407
3.287725,3.298927,2.909158,3.264542
3.287876,3.299113,2.908352,3.266154
3.287836,3.299108,2.906740,3.271795
3.287927,3.299017,2.911575,3.275824
3.287690,3.299007,2.904322,3.265348
3.287806,3.299012,2.913187,3.266154
3.287806,3.299108,2.909158,3.269377
3.287896,3.298987,2.913187,3.268571
3.287670,3.299053,2.903517,3.269377
3.287791,3.299088,2.905128,3.270183
3.287766,3.299224,2.911575,3.270183
3.287680,3.299032,2.905128,3.268571
3.287740,3.299133,2.903517,3.266154
3.287715,3.299148,2.908352,3.266960
3.287841,3.299209,2.907546,3.270989
3.287660,3.298957,2.901905,3.266960
3.287619,3.298957,2.901905,3.269377
3.287599,3.298967,2.902711,3.272601
3.287655,3.299113,2.904322,3.268571
3.287499,3.298902,2.899487,3.262930
3.287619,3.299022,2.905128,3.263736
3.287559,3.299022,2.901905,3.266154
3.287529,3.298942,2.900293,3.266960
3.287423,3.298952,2.897876,3.265348
3.287458,3.298972,2.900293,3.268571
3.287468,3.299108,2.899487,3.266960
3.287408,3.298927,2.898681,3.261319
3.287332,3.298912,2.894652,3.262930
3.287413,3.298922,2.895458,3.265348
3.287403,3.298947,2.896264,3.268571
3.287262,3.298841,2.893040,3.260513
3.287307,3.299017,2.895458,3.269377
3.287287,3.298897,2.897876,3.262930
3.287353,3.298836,2.896264,3.262930
3.287081,3.298791,2.895458,3.261319
3.287206,3.299012,2.894652,3.265348
3.287126,3.298866,2.891428,3.263736
3.287166,3.298831,2.892234,3.264542
3.286955,3.298821,2.878535,3.261319
3.286960,3.298851,2.894652,3.265348
3.287126,3.298972,2.889817,3.262125
3.287141,3.298796,2.880147,3.261319
3.286995,3.298806,2.888205,3.263736
3.287081,3.298826,2.883370,3.261319
3.287136,3.298937,2.882564,3.263736
3.286965,3.298826,2.879341,3.259707
3.286894,3.298912,2.888205,3.262930
3.287106,3.298841,2.882564,3.261319
3.287206,3.298927,2.893040,3.267766
3.286950,3.298771,2.880147,3.261319
3.287201,3.298907,2.889011,3.263736
3.287151,3.298841,2.889817,3.262930
3.287136,3.298771,2.897070,3.261319
3.286919,3.298826,2.884982,3.261319
3.287201,3.298816,2.888205,3.259707
3.287191,3.298871,2.889011,3.261319
3.287116,3.298821,2.891428,3.261319
3.287111,3.298831,2.888205,3.261319
3.287232,3.298912,2.893040,3.263736
3.287186,3.298992,2.892234,3.266154
3.287055,3.298816,2.884982,3.258901
3.287126,3.298902,2.889011,3.266154
3.287151,3.298821,2.889817,3.261319
3.287272,3.298831,2.894652,3.266960
3.286970,3.298781,2.883370,3.261319
3.287126,3.298927,2.882564,3.262930
3.287086,3.298826,2.889817,3.262930
3.287045,3.298836,2.891428,3.260513
3.286814,3.298821,2.874506,3.261319
3.287015,3.298831,2.889817,3.262125
3.287045,3.298866,2.889817,3.261319
3.287015,3.298796,2.874506,3.261319
3.286889,3.298806,2.881758,3.261319
3.287025,3.298886,2.889011,3.261319
3.286945,3.298932,2.883370,3.266154
3.286839,3.298821,2.876117,3.259707
3.286884,3.298876,2.876117,3.261319
3.286904,3.298831,2.879341,3.261319
3.287116,3.298876,2.884176,3.262930
3.286793,3.298776,2.876923,3.261319
3.286839,3.298866,2.876923,3.261319
3.286909,3.298831,2.874506,3.261319
3.286854,3.298745,2.878535,3.261319
3.286683,3.298766,2.876117,3.258095
3.286799,3.298836,2.874506,3.262930
3.286773,3.298801,2.874506,3.261319
3.286698,3.298781,2.883370,3.252454
3.286693,3.298786,2.869670,3.261319
3.286768,3.298801,2.874506,3.261319
3.286718,3.298902,2.873700,3.261319
3.286627,3.298761,2.873700,3.258095
3.286668,3.298796,2.874506,3.261319
3.286718,3.298771,2.874506,3.261319
3.286758,3.298886,2.872894,3.261319
3.286627,3.298700,2.872894,3.261319
3.286637,3.298791,2.875311,3.259707
3.286647,3.298781,2.872894,3.261319
3.286698,3.298771,2.874506,3.262930
3.286491,3.298665,2.868865,3.253260
3.286592,3.298745,2.872894,3.255678
3.286617,3.298786,2.870476,3.258901
3.286511,3.298725,2.864029,3.265348
3.286466,3.298750,2.864835,3.257289
3.286557,3.298766,2.868865,3.257289
3.286567,3.298831,2.868865,3.255678
3.286496,3.298745,2.864029,3.259707
3.286451,3.298730,2.865641,3.258095
3.286451,3.298740,2.865641,3.258095
3.286501,3.298786,2.868865,3.261319
3.286375,3.298640,2.863224,3.258095
3.286370,3.298761,2.864029,3.258095
3.286411,3.298725,2.866447,3.260513
3.286476,3.298761,2.869670,3.262930
3.286300,3.298609,2.859194,3.255678
3.286335,3.298745,2.864029,3.256484
3.286330,3.298725,2.863224,3.257289
3.286365,3.298655,2.864029,3.257289
3.286219,3.298690,2.859194,3.254066
3.286275,3.298685,2.860000,3.253260
3.286260,3.298710,2.859194,3.254066
3.286063,3.298650,2.862418,3.254066
3.286129,3.298670,2.857582,3.254066
3.286073,3.298579,2.856776,3.256484
3.286114,3.298675,2.857582,3.258095
3.285973,3.298514,2.851941,3.251648
3.285973,3.298609,2.848718,3.258095
3.285978,3.298625,2.850330,3.252454
3.286073,3.298609,2.855165,3.254066
3.285922,3.298418,2.849524,3.248425
3.286053,3.298604,2.849524,3.252454
3.285912,3.298554,2.851135,3.252454
3.285962,3.298640,2.852747,3.248425
3.285882,3.298489,2.848718,3.250843
3.286043,3.298564,2.852747,3.251648
3.285927,3.298584,2.849524,3.249231
3.285887,3.298524,2.848718,3.250843
3.285912,3.298549,2.847912,3.250843
3.285993,3.298534,2.850330,3.250843
3.285942,3.298700,2.848718,3.260513
3.285887,3.298489,2.848718,3.251648
3.285942,3.298625,2.850330,3.252454
3.286008,3.298599,2.851941,3.257289
3.286134,3.298705,2.854359,3.252454
3.285967,3.298458,2.849524,3.252454
3.286144,3.298614,2.854359,3.257289
3.286209,3.298700,2.861612,3.255678
3.286350,3.298594,2.860806,3.260513
3.286285,3.298680,2.861612,3.252454
3.286426,3.298715,2.865641,3.260513
3.286602,3.298776,2.870476,3.261319
3.286718,3.298771,2.866447,3.261319
3.286668,3.298786,2.874506,3.261319
3.286773,3.298841,2.875311,3.261319
3.286975,3.299012,2.880147,3.263736
3.286950,3.298846,2.880147,3.261319
3.287222,3.298942,2.889817,3.262125
3.287287,3.298881,2.893040,3.262125
3.287484,3.299048,2.896264,3.263736
3.287363,3.298846,2.897070,3.261319
3.287484,3.299032,2.900293,3.267766
3.287504,3.299032,2.897876,3.269377
3.287564,3.299083,2.902711,3.269377
3.287468,3.298942,2.894652,3.266154
3.287569,3.299038,2.903517,3.264542
3.287519,3.298982,2.900293,3.267766
3.287599,3.298977,2.905934,3.271795
3.287468,3.298952,2.899487,3.265348
3.287504,3.299002,2.900293,3.268571
3.287514,3.299073,2.901099,3.265348
3.287473,3.298937,2.897876,3.262930
3.287453,3.298982,2.899487,3.264542
3.287484,3.298967,2.898681,3.267766
3.287484,3.299088,2.898681,3.271795
3.287453,3.298861,2.900293,3.263736
3.287423,3.298947,2.899487,3.264542
3.287458,3.298967,2.894652,3.266960
3.287413,3.298937,2.898681,3.265348
3.287307,3.298826,2.892234,3.261319
3.287368,3.298917,2.896264,3.262125
3.287327,3.298937,2.897070,3.263736
3.287342,3.298801,2.890623,3.262930
3.287176,3.298836,2.888205,3.261319
3.287353,3.298897,2.896264,3.262930
3.287201,3.298891,2.892234,3.263736
3.287307,3.298821,2.874506,3.261319
3.287096,3.298816,2.889011,3.263736
3.287086,3.298816,2.883370,3.262930
3.287181,3.298932,2.889817,3.265348
3.286980,3.298781,2.883370,3.261319
3.286929,3.298876,2.881758,3.265348
3.287045,3.298826,2.882564,3.261319
3.287151,3.298851,2.890623,3.261319
3.286799,3.298766,2.881758,3.258095
3.286935,3.298761,2.880147,3.261319
3.286859,3.298811,2.882564,3.261319
3.286778,3.298791,2.877729,3.261319
3.286703,3.298781,2.874506,3.259707
3.286844,3.298806,2.883370,3.261319
3.286783,3.298791,2.876923,3.261319
3.286778,3.298755,2.880147,3.259707
3.286688,3.298745,2.874506,3.259707
3.286783,3.298781,2.874506,3.261319
3.286713,3.298871,2.874506,3.262930
3.286703,3.298725,2.874506,3.257289
3.286718,3.298841,2.874506,3.261319
3.286743,3.298771,2.875311,3.258901
3.286864,3.298811,2.881758,3.261319
3.286678,3.298680,2.874506,3.256484
3.286783,3.298766,2.874506,3.260513
3.286728,3.298791,2.875311,3.261319
3.286929,3.298766,2.879341,3.262930
3.286673,3.298745,2.873700,3.258901
3.286713,3.298791,2.873700,3.261319
3.286783,3.298791,2.875311,3.261319
3.286804,3.298776,2.874506,3.259707
3.286743,3.298801,2.874506,3.261319
3.286783,3.298836,2.876923,3.260513
3.286773,3.298876,2.876923,3.266154
3.286713,3.298766,2.874506,3.260513
3.286743,3.298826,2.875311,3.259707
3.286773,3.298801,2.877729,3.261319
3.286909,3.298831,2.878535,3.262125
3.286693,3.298715,2.872894,3.257289
3.286748,3.298791,2.874506,3.261319
3.286768,3.298816,2.876117,3.261319
3.286773,3.298831,2.879341,3.268571
3.286668,3.298771,2.874506,3.258901
3.286723,3.298776,2.876923,3.261319
3.286763,3.298781,2.874506,3.261319
3.286864,3.298761,2.873700,3.258901
3.286703,3.298755,2.873700,3.261319
3.286793,3.298796,2.873700,3.261319
3.286718,3.298902,2.874506,3.261319
3.286663,3.298720,2.874506,3.259707
3.286658,3.298771,2.871282,3.259707
3.286698,3.298786,2.874506,3.261319
3.286738,3.298816,2.874506,3.261319
3.286607,3.298619,2.870476,3.255678
3.286658,3.298745,2.871282,3.261319
3.286678,3.298771,2.872088,3.260513
3.286652,3.298755,2.874506,3.261319
3.286501,3.298710,2.869670,3.256484
3.286647,3.298766,2.872894,3.258901
3.286532,3.298755,2.871282,3.259707
3.286582,3.298700,2.867253,3.260513
3.286421,3.298700,2.861612,3.259707
3.286547,3.298725,2.870476,3.261319
3.286471,3.298791,2.867253,3.255678
3.286552,3.298670,2.864029,3.256484
3.286456,3.298705,2.862418,3.258901
3.286522,3.298690,2.868865,3.258095
3.286456,3.298766,2.866447,3.257289
3.286436,3.298619,2.864835,3.252454
3.286441,3.298761,2.864029,3.259707
3.286401,3.298705,2.865641,3.254066
3.286516,3.298685,2.868865,3.258095
3.286396,3.298614,2.861612,3.254066
3.286421,3.298625,2.864835,3.256484
3.286355,3.298690,2.862418,3.257289
3.286345,3.298665,2.866447,3.255678
3.286184,3.298635,2.853553,3.250843
3.286184,3.298695,2.861612,3.256484
3.286234,3.298655,2.862418,3.253260
3.286139,3.298584,2.860806,3.252454
3.286103,3.298625,2.853553,3.250843
3.286164,3.298619,2.859194,3.253260
3.286174,3.298755,2.857582,3.259707
3.286033,3.298519,2.852747,3.251648
3.286144,3.298695,2.857582,3.255678
3.286209,3.298670,2.857582,3.256484
3.286229,3.298750,2.859194,3.258095
3.286149,3.298489,2.855971,3.252454
3.286204,3.298715,2.857582,3.261319
3.286199,3.298640,2.856776,3.255678
3.286214,3.298559,2.859194,3.260513
3.286053,3.298584,2.853553,3.254066
3.286058,3.298645,2.852747,3.261319
3.286149,3.298655,2.860806,3.256484
3.286209,3.298579,2.848718,3.250037
3.285962,3.298604,2.852747,3.253260
3.286083,3.298630,2.854359,3.255678
3.286063,3.298740,2.852747,3.258095
3.285962,3.298574,2.848718,3.255678
3.285937,3.298690,2.850330,3.250037
3.285993,3.298574,2.852747,3.253260
3.286129,3.298640,2.852747,3.253260
3.285892,3.298418,2.848718,3.250843
3.285937,3.298670,2.849524,3.257289
3.285978,3.298589,2.851941,3.253260
3.285978,3.298589,2.851941,3.253260
3.285852,3.298504,2.848718,3.251648
3.285902,3.298509,2.848718,3.258095
3.285912,3.298579,2.848718,3.250037
3.285877,3.298468,2.853553,3.248425
3.285847,3.298504,2.846300,3.250843
3.285917,3.298579,2.848718,3.250843
3.285872,3.298680,2.848718,3.253260
3.285796,3.298473,2.844689,3.250843
3.285862,3.298529,2.847106,3.250037
3.285862,3.298478,2.848718,3.253260
3.285897,3.298534,2.847912,3.253260
3.285791,3.298398,2.847912,3.248425
3.285766,3.298569,2.846300,3.250843
3.285837,3.298494,2.847106,3.252454
3.285887,3.298564,2.848718,3.250843
3.285746,3.298408,2.847912,3.248425
3.285791,3.298564,2.848718,3.251648
