3.286884,3.296610,2.889817,3.196044
3.286879,3.296605,2.882564,3.191209
3.287121,3.296560,2.882564,3.191209
3.286769,3.296575,2.875311,3.184762
3.286874,3.296605,2.883370,3.188791
3.286950,3.296696,2.880147,3.188791
3.286935,3.296550,2.888205,3.183956
3.286774,3.296626,2.874506,3.188791
3.286925,3.296595,2.881758,3.192015
3.286915,3.296686,2.880147,3.194432
3.286864,3.296500,2.876923,3.184762
3.286935,3.296666,2.878535,3.191209
3.286985,3.296671,2.883370,3.191209
3.287192,3.296716,2.877729,3.192821
3.287046,3.296580,2.882564,3.184762
3.287328,3.296757,2.890623,3.191209
3.287413,3.296772,2.894652,3.196044
3.287610,3.296802,2.905128,3.201685
3.287539,3.296832,2.900293,3.196850
3.287922,3.296993,2.913993,3.201685
3.288108,3.297159,2.922051,3.207326
3.288300,3.297165,2.928498,3.209743
3.288330,3.297230,2.930916,3.209743
3.288657,3.297331,2.938974,3.212161
3.288743,3.297522,2.937363,3.211355
3.288879,3.297426,2.946227,3.217802
3.289035,3.297598,2.947839,3.220220
3.289126,3.297593,2.952674,3.218608
3.289307,3.297724,2.954286,3.222637
3.289247,3.297447,2.952674,3.221026
3.289357,3.297603,2.954286,3.220220
3.289362,3.297729,2.962344,3.225055
3.289584,3.297714,2.954286,3.225861
3.289317,3.297603,2.959121,3.222637
3.289488,3.297729,2.964762,3.223443
3.289539,3.297749,2.963956,3.225055
3.289428,3.297754,2.960733,3.228278
3.289317,3.297598,2.955897,3.222637
3.289463,3.297678,2.968791,3.222637
3.289448,3.297729,2.961539,3.233114
3.289342,3.297542,2.955091,3.216191
3.289312,3.297663,2.956703,3.224249
3.289403,3.297618,2.957509,3.222637
3.289312,3.297688,2.963150,3.225055
3.289216,3.297411,2.950256,3.216191
3.289221,3.297517,2.952674,3.215385
3.289141,3.297552,2.953480,3.220220
3.289352,3.297517,2.947839,3.220220
3.289085,3.297411,2.951062,3.214579
3.289095,3.297477,2.951868,3.218608
3.289095,3.297411,2.951868,3.219414
3.288929,3.297421,2.952674,3.215385
3.288834,3.297356,2.943810,3.216996
3.288970,3.297386,2.943810,3.217802
3.288954,3.297663,2.942198,3.229890
3.288839,3.297295,2.943810,3.214579
3.288803,3.297436,2.938169,3.214579
3.288844,3.297341,2.941392,3.213773
3.288954,3.297421,2.940586,3.220220
3.288728,3.297200,2.937363,3.208938
3.288748,3.297285,2.938974,3.212161
3.288723,3.297301,2.939780,3.214579
3.288662,3.297220,2.943004,3.209743
3.288476,3.297094,2.933333,3.204103
3.288622,3.297185,2.934945,3.209743
3.288491,3.297195,2.930916,3.209743
3.288481,3.297109,2.930110,3.196850
3.288310,3.297129,2.926081,3.204103
3.288305,3.297154,2.927692,3.208938
3.288320,3.297235,2.926081,3.209743
3.288224,3.296948,2.916410,3.205714
3.288103,3.297139,2.918828,3.204103
3.288199,3.297144,2.923663,3.208132
3.288244,3.297154,2.920439,3.208132
3.287957,3.296918,2.917216,3.206520
3.288028,3.297059,2.920439,3.195238
3.288048,3.297013,2.911575,3.200073
3.288229,3.297149,2.923663,3.204103
3.287937,3.296908,2.918022,3.200879
3.288063,3.297074,2.917216,3.205714
3.288003,3.297109,2.916410,3.204908
3.288128,3.296998,2.920439,3.201685
3.287957,3.296983,2.913187,3.209743
3.288128,3.297084,2.915604,3.204908
3.288179,3.297149,2.918828,3.208938
3.288139,3.297109,2.920439,3.199267
3.288139,3.297124,2.918022,3.205714
3.288214,3.297129,2.926081,3.205714
3.288305,3.297185,2.925275,3.210549
3.288214,3.297008,2.924469,3.202491
3.288275,3.297134,2.925275,3.209743
3.288310,3.297180,2.925275,3.208132
3.288385,3.297210,2.926081,3.217802
3.288295,3.297018,2.926081,3.204103
3.288335,3.297170,2.926081,3.207326
3.288335,3.297185,2.934139,3.209743
3.288375,3.297200,2.926887,3.209743
3.288234,3.296968,2.924469,3.204908
3.288400,3.297170,2.924469,3.208132
3.288330,3.297180,2.925275,3.207326
3.288340,3.297139,2.926887,3.207326
3.288254,3.297134,2.926081,3.204908
3.288300,3.297149,2.926081,3.209743
3.288295,3.297170,2.924469,3.209743
3.288244,3.297039,2.921245,3.201685
3.288229,3.297129,2.924469,3.208938
3.288189,3.297134,2.924469,3.207326
3.288305,3.297165,2.930110,3.202491
3.288199,3.296988,2.915604,3.202491
3.288179,3.297018,2.922051,3.208132
3.288194,3.297069,2.922857,3.204908
3.288275,3.297044,2.923663,3.209743
3.287987,3.296978,2.914798,3.200879
3.288093,3.297089,2.915604,3.201685
3.288093,3.297044,2.913993,3.205714
3.288083,3.296993,2.925275,3.203297
3.287862,3.296953,2.913187,3.204908
3.288013,3.296938,2.910769,3.202491
3.287917,3.297170,2.917216,3.212967
3.287867,3.296893,2.913993,3.208132
3.287862,3.296993,2.912381,3.204103
3.287841,3.296872,2.913187,3.200879
3.287957,3.296998,2.917216,3.204908
3.287756,3.296807,2.907546,3.187985
3.287766,3.296867,2.909963,3.196850
3.287655,3.296782,2.903517,3.196044
3.287761,3.296928,2.908352,3.204103
3.287514,3.296746,2.901905,3.195238
3.287675,3.296827,2.908352,3.196850
3.287625,3.296817,2.901905,3.196850
3.287650,3.296752,2.907546,3.196850
3.287504,3.296802,2.900293,3.196850
3.287549,3.296827,2.900293,3.198462
3.287559,3.296958,2.900293,3.209743
3.287509,3.296757,2.900293,3.195238
3.287514,3.296782,2.897876,3.196044
3.287504,3.296807,2.900293,3.196044
3.287554,3.296882,2.900293,3.200879
3.287373,3.296731,2.897070,3.192015
3.287449,3.296741,2.896264,3.196850
3.287433,3.296706,2.898681,3.196044
3.287514,3.296792,2.899487,3.196044
3.287267,3.296590,2.889817,3.191209
3.287363,3.296736,2.893040,3.193626
3.287343,3.296676,2.896264,3.196850
3.287373,3.296631,2.897876,3.192015
3.287061,3.296641,2.884982,3.188791
3.287313,3.296736,2.892234,3.192015
3.287267,3.296741,2.890623,3.195238
3.287136,3.296610,2.881758,3.188791
3.287131,3.296736,2.883370,3.193626
3.287202,3.296616,2.889817,3.194432
3.287307,3.296746,2.891428,3.196850
3.287041,3.296500,2.881758,3.192821
3.287177,3.296691,2.888205,3.191209
3.287025,3.296696,2.889817,3.187985
3.287247,3.296671,2.891428,3.196850
3.286864,3.296505,2.888205,3.186374
3.287005,3.296757,2.889817,3.192821
3.287121,3.296641,2.883370,3.192821
3.287121,3.296595,2.894652,3.189597
3.286799,3.296616,2.879341,3.192015
3.286985,3.296656,2.888205,3.192821
3.286900,3.296681,2.881758,3.184762
3.286859,3.296545,2.875311,3.187985
3.286799,3.296575,2.874506,3.196850
3.286879,3.296540,2.879341,3.192015
3.287010,3.296686,2.882564,3.196044
3.286930,3.296545,2.876923,3.187985
3.286930,3.296646,2.883370,3.191209
3.287051,3.296651,2.882564,3.196044
3.287257,3.296711,2.889817,3.191209
3.287111,3.296600,2.889817,3.192821
3.287368,3.296605,2.896264,3.192015
3.287499,3.296852,2.900293,3.195238
3.287600,3.296837,2.905934,3.198462
3.287564,3.296862,2.902711,3.199267
3.287922,3.297039,2.913187,3.201685
3.288149,3.297185,2.921245,3.208132
3.288385,3.297175,2.939780,3.209743
3.288456,3.297235,2.928498,3.209743
3.288662,3.297366,2.937363,3.213773
3.288763,3.297497,2.941392,3.223443
3.288924,3.297411,2.943004,3.218608
3.289050,3.297562,2.949450,3.218608
3.289131,3.297532,2.951868,3.221026
3.289186,3.297703,2.954286,3.233919
3.289196,3.297532,2.959121,3.217802
3.289367,3.297578,2.962344,3.222637
3.289378,3.297628,2.955091,3.223443
3.289468,3.297648,2.964762,3.231502
3.289287,3.297572,2.959121,3.220220
3.289403,3.297668,2.965568,3.223443
3.289458,3.297673,2.962344,3.221832
3.289564,3.297628,2.958315,3.224249
3.289312,3.297588,2.955091,3.221832
3.289428,3.297562,2.959121,3.222637
3.289332,3.297749,2.959927,3.220220
3.289191,3.297522,2.957509,3.220220
3.289176,3.297547,2.953480,3.225055
3.289257,3.297578,2.957509,3.221832
3.289307,3.297608,2.957509,3.221026
3.289111,3.297351,2.949450,3.217802
3.289146,3.297537,2.951868,3.226667
3.289111,3.297492,2.947839,3.218608
3.289136,3.297613,2.951062,3.221026
3.288960,3.297270,2.946227,3.211355
3.288980,3.297406,2.947839,3.216996
3.288965,3.297351,2.949450,3.215385
3.288914,3.297301,2.943810,3.211355
3.288758,3.297306,2.938974,3.209743
3.288919,3.297346,2.943810,3.215385
3.288788,3.297497,2.944615,3.217802
3.288753,3.297250,2.940586,3.210549
3.288693,3.297391,2.937363,3.212161
3.288672,3.297270,2.938974,3.209743
3.288728,3.297416,2.938974,3.217802
3.288567,3.297144,2.934945,3.208938
3.288622,3.297210,2.935751,3.212161
3.288531,3.297205,2.930110,3.209743
3.288693,3.297210,2.939780,3.209743
3.288380,3.297119,2.927692,3.204908
3.288385,3.297185,2.929304,3.204103
3.288325,3.297165,2.926081,3.208132
3.288375,3.297129,2.930110,3.207326
3.288169,3.297034,2.921245,3.204908
3.288199,3.297094,2.924469,3.204103
3.288204,3.297170,2.923663,3.208938
3.288164,3.296998,2.922857,3.200879
3.288063,3.297084,2.917216,3.199267
3.288053,3.296998,2.920439,3.204103
3.288194,3.297109,2.920439,3.205714
3.287937,3.296882,2.912381,3.196850
3.287998,3.296978,2.911575,3.201685
3.288038,3.296963,2.913993,3.201685
3.288088,3.297094,2.917216,3.202491
3.287882,3.296832,2.913993,3.196850
3.287982,3.296973,2.918022,3.204908
3.288013,3.297003,2.919634,3.201685
3.288008,3.296943,2.925275,3.207326
3.287967,3.296933,2.913993,3.204103
3.288073,3.296943,2.920439,3.204103
3.288098,3.297180,2.920439,3.208938
3.288018,3.297013,2.925275,3.205714
3.288088,3.297079,2.917216,3.201685
3.288224,3.297099,2.923663,3.208132
3.288285,3.297165,2.925275,3.209743
3.288179,3.296948,2.925275,3.199267
3.288269,3.297114,2.922857,3.209743
3.288305,3.297119,2.926081,3.197656
3.288385,3.297200,2.925275,3.210549
3.288295,3.297054,2.926081,3.209743
3.288315,3.297149,2.926081,3.208938
3.288325,3.297170,2.925275,3.209743
3.288385,3.297159,2.930110,3.204908
3.288169,3.297104,2.926081,3.205714
3.288300,3.297250,2.928498,3.209743
3.288320,3.297210,2.926887,3.212967
3.288275,3.297104,2.922857,3.196850
3.288239,3.297149,2.922857,3.207326
3.288345,3.297144,2.929304,3.208132
3.288285,3.297205,2.926081,3.212161
3.288189,3.297069,2.921245,3.209743
3.288259,3.297139,2.920439,3.208132
3.288219,3.297104,2.923663,3.205714
3.288365,3.297190,2.926081,3.208132
3.288128,3.296968,2.921245,3.202491
3.288229,3.297079,2.923663,3.204908
3.288093,3.297084,2.919634,3.196850
3.288164,3.297074,2.926081,3.207326
3.287927,3.296973,2.917216,3.198462
3.288043,3.297059,2.916410,3.202491
3.288028,3.297084,2.918022,3.204908
3.287972,3.296968,2.913187,3.204103
3.287851,3.296973,2.910769,3.205714
3.287887,3.296968,2.913187,3.200073
3.287932,3.297089,2.913187,3.209743
3.287841,3.296787,2.908352,3.199267
3.287700,3.296882,2.907546,3.200879
3.287731,3.296928,2.907546,3.193626
3.287897,3.296993,2.914798,3.204908
3.287675,3.296721,2.902711,3.196044
3.287806,3.296832,2.909158,3.196850
3.287690,3.296822,2.908352,3.198462
3.287786,3.296913,2.905128,3.204103
3.287514,3.296792,2.900293,3.188791
3.287630,3.296847,2.902711,3.199267
3.287564,3.296777,2.900293,3.196850
3.287585,3.296777,2.911575,3.193626
3.287469,3.296772,2.900293,3.194432
3.287519,3.296746,2.901099,3.196850
3.287519,3.296963,2.900293,3.204103
3.287499,3.296746,2.894652,3.198462
3.287484,3.296827,2.899487,3.198462
3.287469,3.296807,2.900293,3.196850
3.287549,3.296837,2.900293,3.198462
3.287449,3.296676,2.894652,3.192015
3.287514,3.296676,2.897876,3.196044
3.287413,3.296777,2.897070,3.196044
3.287504,3.296777,2.899487,3.199267
3.287252,3.296575,2.895458,3.192821
3.287383,3.296762,2.894652,3.196044
3.287343,3.296767,2.894652,3.196044
3.287408,3.296661,2.889817,3.190403
3.287252,3.296726,2.889817,3.192821
3.287348,3.296711,2.896264,3.196044
3.287277,3.296767,2.892234,3.196850
3.287161,3.296595,2.880147,3.183956
3.287172,3.296726,2.891428,3.196044
3.287197,3.296701,2.893040,3.192015
3.287318,3.296777,2.890623,3.194432
3.287166,3.296595,2.893040,3.187180
3.287166,3.296626,2.888205,3.190403
3.287141,3.296681,2.889011,3.192015
3.287333,3.296741,2.894652,3.191209
3.286905,3.296480,2.878535,3.187180
3.287146,3.296636,2.881758,3.196044
3.287081,3.296671,2.881758,3.191209
3.287182,3.296575,2.888205,3.191209
3.286834,3.296510,2.881758,3.186374
3.287046,3.296726,2.881758,3.191209
3.287010,3.296651,2.882564,3.183956
3.286945,3.296525,2.882564,3.187985
3.286774,3.296661,2.880147,3.189597
3.286970,3.296616,2.882564,3.187985
3.286970,3.296741,2.883370,3.196850
3.286905,3.296454,2.880147,3.187985
3.287025,3.296646,2.884982,3.191209
3.287156,3.296661,2.888205,3.194432
3.287358,3.296767,2.899487,3.196850
3.287287,3.296676,2.889817,3.191209
3.287549,3.296898,2.899487,3.196850
3.287620,3.296923,2.903517,3.201685
3.288048,3.296988,2.912381,3.196850
3.287927,3.297018,2.916410,3.200879
3.288199,3.297180,2.917216,3.208938
3.288345,3.297210,2.926081,3.209743
3.288451,3.297250,2.926081,3.213773
3.288682,3.297376,2.934139,3.213773
3.288924,3.297497,2.940586,3.220220
3.289075,3.297653,2.950256,3.218608
3.289095,3.297532,2.951062,3.229890
3.289156,3.297673,2.955897,3.222637
3.289277,3.297683,2.956703,3.223443
3.289438,3.297794,2.956703,3.230696
3.289403,3.297547,2.955897,3.219414
3.289443,3.297572,2.961539,3.222637
3.289468,3.297794,2.965568,3.233114
3.289544,3.297729,2.967985,3.231502
3.289458,3.297688,2.962344,3.221832
3.289614,3.297824,2.967985,3.226667
3.289544,3.297759,2.968791,3.226667
3.289549,3.297658,2.965568,3.220220
3.289342,3.297623,2.955897,3.224249
3.289478,3.297708,2.959927,3.225055
3.289438,3.297754,2.963150,3.222637
3.289362,3.297567,2.962344,3.221832
3.289362,3.297708,2.959121,3.224249
3.289337,3.297608,2.962344,3.221832
3.289463,3.297703,2.959121,3.225861
3.289171,3.297512,2.959927,3.209743
3.289257,3.297578,2.959121,3.226667
3.289156,3.297542,2.955897,3.223443
3.289226,3.297683,2.954286,3.231502
3.289060,3.297361,2.943004,3.214579
3.289136,3.297452,2.951868,3.220220
3.289116,3.297517,2.950256,3.218608
3.289030,3.297411,2.952674,3.213773
3.288990,3.297406,2.944615,3.212161
3.289070,3.297311,2.946227,3.218608
3.289005,3.297512,2.947839,3.221832
3.288889,3.297331,2.944615,3.215385
3.288813,3.297401,2.940586,3.219414
3.288960,3.297275,2.951868,3.216996
3.288869,3.297436,2.947839,3.218608
3.288748,3.297215,2.938974,3.213773
3.288768,3.297255,2.942198,3.216996
3.288713,3.297265,2.938974,3.213773
3.288763,3.297210,2.935751,3.217802
3.288526,3.297175,2.930110,3.207326
3.288602,3.297235,2.936557,3.214579
3.288582,3.297175,2.933333,3.209743
3.288506,3.297165,2.934945,3.204103
3.288315,3.297165,2.926081,3.208132
3.288390,3.297185,2.927692,3.208132
3.288325,3.297326,2.926081,3.209743
3.288295,3.297124,2.926081,3.208132
3.288229,3.297099,2.925275,3.204103
3.288325,3.297094,2.926081,3.207326
3.288305,3.297200,2.924469,3.209743
3.288149,3.297003,2.920439,3.201685
3.288204,3.297119,2.922051,3.203297
3.288098,3.297054,2.919634,3.205714
3.288204,3.297144,2.926081,3.206520
3.288043,3.296903,2.919634,3.200879
3.288149,3.297089,2.926081,3.203297
3.288189,3.297079,2.924469,3.205714
3.288244,3.297013,2.926081,3.208132
3.288088,3.297018,2.918022,3.204908
3.288204,3.297089,2.926081,3.208132
3.288285,3.297205,2.925275,3.209743
3.288224,3.297114,2.926081,3.209743
3.288229,3.297149,2.922051,3.203297
3.288305,3.297089,2.927692,3.208938
3.288375,3.297185,2.926081,3.204908
3.288325,3.297139,2.926081,3.204103
3.288330,3.297180,2.926081,3.213773
3.288330,3.297170,2.928498,3.209743
3.288501,3.297225,2.917216,3.209743
3.288300,3.297094,2.922857,3.208938
3.288431,3.297195,2.930110,3.209743
3.288416,3.297205,2.930916,3.209743
3.288526,3.297159,2.927692,3.206520
3.288325,3.297144,2.927692,3.207326
3.288380,3.297255,2.928498,3.214579
3.288365,3.297205,2.928498,3.209743
3.288254,3.297165,2.928498,3.209743
3.288325,3.297159,2.926081,3.209743
3.288370,3.297185,2.930110,3.209743
3.288400,3.297230,2.926887,3.208938
3.288269,3.297129,2.925275,3.208132
3.288269,3.297225,2.924469,3.208938
3.288295,3.297139,2.926081,3.208938
3.288295,3.297144,2.926081,3.209743
3.288199,3.297064,2.924469,3.201685
3.288305,3.297175,2.926081,3.204103
3.288159,3.297175,2.922857,3.206520
3.288285,3.297099,2.926081,3.207326
3.287967,3.297044,2.914798,3.202491
3.288073,3.297089,2.917216,3.205714
3.288108,3.297104,2.918828,3.209743
3.288023,3.297039,2.909963,3.205714
3.287937,3.297003,2.913187,3.204103
3.288043,3.297079,2.913187,3.204103
3.288048,3.297170,2.913993,3.205714
3.287897,3.296918,2.913993,3.201685
3.287846,3.297074,2.912381,3.208938
3.287907,3.297094,2.913993,3.205714
3.287962,3.297034,2.917216,3.205714
3.287806,3.296887,2.910769,3.198462
3.287862,3.296978,2.911575,3.200879
3.287771,3.296938,2.911575,3.196044
3.287867,3.297003,2.911575,3.209743
3.287625,3.296797,2.902711,3.196850
3.287655,3.296852,2.905128,3.195238
3.287620,3.296852,2.905128,3.199267
3.287670,3.296817,2.902711,3.196850
3.287509,3.296817,2.901905,3.196850
3.287564,3.296837,2.900293,3.195238
3.287534,3.296908,2.897876,3.205714
3.287494,3.296777,2.898681,3.196044
3.287459,3.296852,2.898681,3.196850
3.287519,3.296757,2.900293,3.195238
3.287615,3.296852,2.900293,3.196850
3.287418,3.296691,2.898681,3.185568
3.287479,3.296777,2.897070,3.199267
3.287509,3.296817,2.895458,3.197656
3.287464,3.296721,2.899487,3.192015
3.287378,3.296661,2.894652,3.192821
3.287393,3.296777,2.897876,3.183956
3.287363,3.296746,2.897070,3.194432
3.287338,3.296716,2.895458,3.192015
3.287172,3.296701,2.888205,3.187985
3.287363,3.296772,2.892234,3.196850
3.287343,3.296832,2.894652,3.194432
3.287247,3.296797,2.894652,3.192821
3.287202,3.296757,2.889817,3.194432
3.287287,3.296671,2.895458,3.195238
3.287297,3.296787,2.895458,3.196850
3.287101,3.296605,2.893040,3.195238
3.287177,3.296726,2.889011,3.196850
3.287116,3.296661,2.892234,3.196850
3.287338,3.296726,2.895458,3.192821
3.287036,3.296570,2.884176,3.190403
3.287141,3.296691,2.892234,3.195238
3.287066,3.296741,2.889817,3.192821
3.287061,3.296666,2.883370,3.188791
3.286809,3.296580,2.880147,3.185568
3.287071,3.296631,2.876923,3.192821
3.287041,3.296731,2.882564,3.194432
3.286965,3.296490,2.884176,3.189597
3.286789,3.296671,2.877729,3.190403
3.286869,3.296595,2.879341,3.188791
3.287046,3.296706,2.880147,3.192821
3.286869,3.296500,2.878535,3.192821
3.286849,3.296696,2.878535,3.187985
3.286930,3.296661,2.888205,3.191209
3.287081,3.296676,2.876117,3.192821
3.286789,3.296540,2.880147,3.186374
3.287076,3.296731,2.881758,3.184762
3.287187,3.296736,2.889011,3.196044
3.287373,3.296842,2.897876,3.196044
3.287247,3.296731,2.891428,3.194432
3.287454,3.296867,2.901099,3.197656
3.287610,3.297013,2.900293,3.201685
3.287826,3.297023,2.905128,3.201685
3.287957,3.297129,2.912381,3.205714
3.288234,3.297235,2.923663,3.210549
3.288390,3.297416,2.928498,3.208938
3.288486,3.297275,2.930916,3.213773
3.288698,3.297507,2.937363,3.216996
3.288914,3.297547,2.943004,3.217802
3.289126,3.297703,2.944615,3.224249
3.289080,3.297497,2.951868,3.216996
3.289342,3.297663,2.954286,3.224249
3.289287,3.297693,2.958315,3.220220
3.289403,3.297754,2.962344,3.225055
3.289312,3.297643,2.955897,3.229084
3.289473,3.297749,2.962344,3.227473
3.289413,3.297824,2.959927,3.226667
3.289473,3.297673,2.963956,3.224249
3.289443,3.297643,2.957509,3.223443
3.289519,3.297824,2.964762,3.225861
3.289498,3.297905,2.960733,3.222637
3.289438,3.297618,2.962344,3.221832
3.289418,3.297724,2.959121,3.227473
3.289483,3.297774,2.963150,3.218608
3.289433,3.297784,2.968791,3.230696
3.289428,3.297593,2.960733,3.221832
3.289408,3.297668,2.960733,3.225055
3.289357,3.297693,2.956703,3.228278
3.289312,3.297623,2.962344,3.222637
3.289131,3.297502,2.951868,3.217802
3.289307,3.297623,2.953480,3.226667
3.289226,3.297658,2.954286,3.226667
3.289226,3.297477,2.952674,3.220220
3.289096,3.297512,2.943004,3.222637
3.289126,3.297578,2.951868,3.221026
3.289106,3.297567,2.951868,3.226667
3.288970,3.297502,2.938974,3.209743
3.289025,3.297542,2.950256,3.222637
3.289040,3.297532,2.951062,3.216996
3.288995,3.297562,2.947839,3.221026
3.288889,3.297371,2.941392,3.210549
3.288874,3.297537,2.941392,3.213773
3.288884,3.297421,2.946227,3.214579
3.288960,3.297436,2.938974,3.212161
3.288708,3.297260,2.938974,3.211355
3.288708,3.297346,2.938974,3.217802
3.288763,3.297326,2.938974,3.209743
3.288743,3.297255,2.938974,3.209743
3.288416,3.297205,2.928498,3.217802
3.288647,3.297285,2.934139,3.212967
3.288486,3.297416,2.932528,3.209743
3.288370,3.297190,2.930110,3.209743
3.288315,3.297215,2.926081,3.209743
3.288335,3.297285,2.926081,3.208132
3.288471,3.297265,2.926887,3.213773
3.288315,3.297018,2.926081,3.208938
3.288300,3.297165,2.922857,3.209743
3.288290,3.297134,2.926081,3.209743
3.288320,3.297185,2.925275,3.199267
3.288118,3.296988,2.916410,3.200879
3.288249,3.297175,2.921245,3.209743
3.288224,3.297114,2.924469,3.208132
3.288204,3.297119,2.926887,3.203297
3.288083,3.297008,2.917216,3.205714
3.288194,3.297114,2.918022,3.208938
3.288280,3.297185,2.922857,3.208938
3.288123,3.297089,2.917216,3.200879
3.288113,3.297159,2.923663,3.207326
3.288290,3.297134,2.926081,3.209743
3.288295,3.297295,2.926081,3.209743
3.288280,3.297149,2.925275,3.204103
3.288330,3.297165,2.926081,3.210549
3.288325,3.297180,2.926081,3.209743
3.288416,3.297225,2.926081,3.209743
3.288254,3.297099,2.926081,3.211355
3.288416,3.297195,2.924469,3.207326
3.288370,3.297205,2.934945,3.209743
3.288441,3.297124,2.931722,3.210549
3.288300,3.297134,2.926081,3.209743
3.288375,3.297195,2.934139,3.209743
3.288350,3.297250,2.926081,3.209743
3.288416,3.297195,2.926887,3.209743
3.288325,3.297195,2.926081,3.209743
3.288370,3.297250,2.928498,3.209743
3.288360,3.297311,2.926081,3.213773
3.288325,3.297129,2.926081,3.201685
3.288325,3.297215,2.926081,3.209743
3.288300,3.297200,2.927692,3.209743
3.288446,3.297240,2.934945,3.214579
3.288189,3.297023,2.925275,3.207326
3.288315,3.297190,2.926081,3.204103
3.288269,3.297180,2.926081,3.208938
3.288350,3.297129,2.926081,3.206520
3.288219,3.297114,2.924469,3.207326
3.288164,3.297170,2.922051,3.208132
3.288209,3.297154,2.925275,3.208938
3.288134,3.297159,2.919634,3.205714
3.287952,3.297069,2.916410,3.204103
3.288098,3.297129,2.917216,3.207326
3.288048,3.297154,2.915604,3.208938
3.287972,3.296938,2.913187,3.204908
3.287907,3.297084,2.913187,3.202491
3.287957,3.297013,2.912381,3.207326
3.288073,3.297114,2.915604,3.204908
3.287846,3.296882,2.916410,3.199267
3.287947,3.297003,2.913187,3.207326
3.287887,3.296993,2.910769,3.205714
3.287887,3.296993,2.907546,3.208938
3.287635,3.296877,2.900293,3.199267
3.287846,3.296938,2.908352,3.204103
3.287746,3.296958,2.907546,3.201685
3.287675,3.296867,2.910769,3.199267
3.287534,3.296837,2.901099,3.199267
3.287544,3.296862,2.902711,3.204908
3.287635,3.297013,2.902711,3.200879
3.287534,3.296802,2.900293,3.196850
3.287549,3.296903,2.900293,3.199267
3.287554,3.296837,2.900293,3.196850
3.287685,3.296908,2.902711,3.201685
3.287449,3.296736,2.900293,3.187985
3.287489,3.296857,2.897876,3.196044
3.287479,3.296822,2.900293,3.196850
3.287494,3.296812,2.904322,3.198462
3.287333,3.296681,2.894652,3.194432
3.287373,3.296792,2.896264,3.202491
3.287418,3.296792,2.900293,3.196850
3.287418,3.296746,2.898681,3.192821
3.287262,3.296777,2.889817,3.196044
3.287449,3.296792,2.888205,3.195238
3.287378,3.296847,2.895458,3.196850
3.287217,3.296711,2.900293,3.196044
3.287151,3.296792,2.894652,3.194432
3.287267,3.296646,2.891428,3.201685
3.287413,3.296792,2.892234,3.196850
3.287172,3.296616,2.889011,3.192015
3.287237,3.296716,2.892234,3.192821
3.287323,3.296661,2.888205,3.193626
3.287328,3.296731,2.894652,3.189597
3.286910,3.296570,2.888205,3.179927
3.287091,3.296711,2.889817,3.184762
3.287071,3.296736,2.890623,3.192821
3.287197,3.296661,2.882564,3.189597
3.286955,3.296580,2.878535,3.194432
3.287141,3.296721,2.882564,3.192821
3.287096,3.296757,2.888205,3.196850
3.287005,3.296621,2.888205,3.188791
3.286945,3.296726,2.876117,3.187985
3.287066,3.296656,2.889817,3.184762
3.287081,3.296726,2.882564,3.195238
3.286905,3.296565,2.881758,3.189597
3.286854,3.296701,2.880952,3.189597
3.286879,3.296696,2.881758,3.194432
3.287086,3.296686,2.889817,3.194432
3.286819,3.296540,2.879341,3.184762
3.286834,3.296671,2.878535,3.192821
3.286844,3.296656,2.876923,3.192015
3.287126,3.296515,2.881758,3.192015
3.286723,3.296495,2.874506,3.186374
3.286748,3.296605,2.881758,3.189597
3.286829,3.296681,2.880147,3.189597
3.286804,3.296565,2.882564,3.189597
3.286753,3.296651,2.874506,3.189597
3.286960,3.296681,2.883370,3.191209
3.287212,3.296822,2.889817,3.195238
3.287161,3.296706,2.890623,3.195238
3.287338,3.296857,2.897070,3.196850
3.287509,3.296862,2.899487,3.199267
3.287756,3.297129,2.923663,3.207326
3.287841,3.296983,2.907546,3.197656
3.288073,3.297144,2.918022,3.207326
3.288305,3.297230,2.925275,3.208132
3.288562,3.297321,2.922857,3.216996
3.288466,3.297306,2.930916,3.210549
3.288733,3.297497,2.939780,3.220220
3.288934,3.297608,2.944615,3.219414
3.289050,3.297613,2.951868,3.221026
3.289090,3.297613,2.950256,3.222637
3.289226,3.297658,2.963150,3.226667
3.289292,3.297860,2.959927,3.235531
3.289327,3.297638,2.959121,3.221832
3.289322,3.297809,2.957509,3.225055
3.289428,3.297789,2.959927,3.229890
3.289498,3.297809,2.965568,3.232308
3.289332,3.297588,2.963956,3.222637
3.289478,3.297865,2.962344,3.233114
3.289478,3.297814,2.960733,3.226667
3.289604,3.297880,2.963150,3.233919
3.289337,3.297668,2.965568,3.220220
3.289383,3.297789,2.960733,3.230696
3.289473,3.297724,2.960733,3.226667
3.289418,3.297729,2.959927,3.226667
3.289287,3.297638,2.953480,3.226667
3.289352,3.297749,2.960733,3.215385
3.289393,3.297900,2.959927,3.235531
3.289257,3.297623,2.951868,3.224249
3.289252,3.297683,2.955897,3.225055
3.289226,3.297754,2.959927,3.223443
3.289287,3.297739,2.955897,3.225055
3.289146,3.297502,2.954286,3.218608
3.289191,3.297562,2.951868,3.227473
3.289121,3.297618,2.951868,3.220220
3.289211,3.297648,2.954286,3.216191
3.289045,3.297447,2.946227,3.216996
3.289101,3.297502,2.947033,3.222637
3.289030,3.297542,2.948645,3.225055
3.288985,3.297381,2.947839,3.216996
3.288798,3.297421,2.941392,3.214579
3.288919,3.297436,2.947033,3.221026
3.288844,3.297547,2.943004,3.220220
3.288713,3.297275,2.947839,3.214579
3.288713,3.297436,2.937363,3.215385
3.288763,3.297457,2.938974,3.213773
3.288793,3.297321,2.938974,3.220220
3.288516,3.297175,2.934945,3.208132
3.288607,3.297260,2.934139,3.217802
3.288552,3.297270,2.934945,3.210549
3.288607,3.297275,2.928498,3.209743
3.288350,3.297129,2.930110,3.208938
3.288431,3.297240,2.933333,3.215385
3.288370,3.297235,2.929304,3.209743
3.288496,3.297240,2.926081,3.209743
3.288219,3.297165,2.921245,3.209743
3.288254,3.297149,2.925275,3.209743
3.288295,3.297275,2.924469,3.208938
3.288108,3.297079,2.918022,3.207326
3.288133,3.297149,2.921245,3.204103
3.288179,3.297124,2.925275,3.206520
3.288300,3.297240,2.921245,3.209743
3.288103,3.297069,2.911575,3.205714
3.288189,3.297139,2.921245,3.209743
3.288224,3.297109,2.923663,3.206520
3.288275,3.297165,2.924469,3.196044
3.288179,3.297074,2.924469,3.205714
3.288285,3.297170,2.923663,3.209743
3.288264,3.297165,2.922051,3.208938
3.288340,3.297205,2.926081,3.208938
3.288209,3.297119,2.922051,3.208132
3.288310,3.297170,2.926081,3.209743
3.288300,3.297306,2.925275,3.209743
3.288340,3.297175,2.926081,3.209743
3.288315,3.297210,2.925275,3.209743
3.288320,3.297195,2.926081,3.209743
3.288395,3.297290,2.926887,3.215385
3.288325,3.297185,2.926081,3.209743
3.288315,3.297175,2.926081,3.209743
3.288365,3.297210,2.930916,3.209743
3.288501,3.297295,2.930916,3.209743
3.288290,3.297034,2.926081,3.204908
3.288370,3.297260,2.934139,3.209743
3.288370,3.297250,2.926887,3.209743
3.288446,3.297114,2.936557,3.209743
3.288254,3.297134,2.926081,3.208938
3.288280,3.297220,2.930916,3.209743
3.288330,3.297230,2.927692,3.208938
3.288280,3.297154,2.925275,3.208938
3.288295,3.297185,2.923663,3.209743
3.288310,3.297180,2.926081,3.208132
3.288320,3.297316,2.926081,3.207326
3.288264,3.297109,2.923663,3.206520
3.288234,3.297240,2.922857,3.209743
3.288259,3.297175,2.922857,3.209743
3.288244,3.297250,2.926081,3.209743
3.288179,3.297003,2.915604,3.205714
3.288224,3.297119,2.923663,3.208938
3.288169,3.297159,2.920439,3.203297
3.288194,3.297049,2.918022,3.204103
3.287902,3.296918,2.917216,3.202491
3.288028,3.297099,2.915604,3.205714
3.287942,3.297064,2.913187,3.208132
3.288098,3.297039,2.917216,3.200879
3.287851,3.297029,2.905128,3.201685
3.287867,3.296988,2.921245,3.204103
3.287831,3.296998,2.910769,3.213773
3.287715,3.297018,2.907546,3.202491
3.287700,3.296988,2.905934,3.204908
3.287796,3.297034,2.907546,3.200879
3.287791,3.297034,2.908352,3.207326
3.287630,3.296812,2.901099,3.197656
3.287726,3.296963,2.904322,3.199267
3.287670,3.296893,2.900293,3.197656
3.287680,3.296857,2.909158,3.196850
3.287484,3.296787,2.905128,3.195238
3.287585,3.296842,2.898681,3.196850
3.287574,3.296872,2.901099,3.197656
3.287585,3.296711,2.911575,3.198462
3.287418,3.296787,2.897070,3.196044
3.287524,3.296812,2.899487,3.196850
3.287474,3.296887,2.900293,3.198462
3.287418,3.296736,2.890623,3.195238
3.287383,3.296767,2.897876,3.197656
3.287433,3.296837,2.898681,3.201685
3.287459,3.296837,2.900293,3.196850
3.287378,3.296706,2.894652,3.195238
3.287423,3.296792,2.894652,3.199267
3.287302,3.296777,2.895458,3.196850
3.287509,3.296882,2.900293,3.196044
3.287277,3.296666,2.895458,3.191209
3.287388,3.296772,2.894652,3.196850
3.287292,3.296767,2.897070,3.196044
3.287333,3.296731,2.898681,3.194432
3.287116,3.296701,2.891428,3.194432
3.287232,3.296762,2.892234,3.196044
3.287313,3.296792,2.890623,3.196850
3.287146,3.296777,2.898681,3.192015
3.287111,3.296762,2.882564,3.192015
3.287242,3.296736,2.891428,3.196850
3.287318,3.296782,2.891428,3.196850
3.287096,3.296686,2.889011,3.195238
3.287146,3.296787,2.888205,3.196044
3.287192,3.296772,2.891428,3.196850
3.287232,3.296772,2.893846,3.201685
3.287010,3.296631,2.888205,3.187985
3.287146,3.296752,2.888205,3.192015
3.287086,3.296701,2.889011,3.192015
3.287146,3.296691,2.880147,3.192015
3.286829,3.296616,2.880147,3.189597
3.287151,3.296752,2.881758,3.194432
3.286935,3.296787,2.883370,3.194432
3.286950,3.296646,2.878535,3.189597
3.286869,3.296656,2.881758,3.191209
3.287000,3.296691,2.880952,3.191209
3.286990,3.296752,2.888205,3.199267
3.286945,3.296575,2.883370,3.192015
3.286824,3.296671,2.881758,3.184762
3.286869,3.296706,2.881758,3.194432
3.287081,3.296641,2.894652,3.196044
3.286844,3.296530,2.876117,3.189597
3.287015,3.296691,2.888205,3.188791
3.286945,3.296757,2.884176,3.196850
3.287197,3.296656,2.889011,3.197656
3.286940,3.296686,2.874506,3.194432
3.287277,3.296807,2.894652,3.196850
3.287428,3.296893,2.897876,3.209743
3.287509,3.296862,2.900293,3.197656
3.287590,3.296973,2.901099,3.200073
3.287917,3.297124,2.911575,3.204103
3.288108,3.297245,2.917216,3.217802
3.288254,3.297185,2.926081,3.216191
3.288330,3.297316,2.926081,3.214579
3.288541,3.297482,2.937363,3.215385
3.288763,3.297633,2.938974,3.219414
3.288818,3.297436,2.943004,3.217802
3.289035,3.297572,2.950256,3.222637
3.289111,3.297598,2.951868,3.224249
3.289221,3.297557,2.955897,3.223443
3.289126,3.297608,2.951868,3.218608
3.289277,3.297714,2.952674,3.226667
3.289357,3.297678,2.959927,3.227473
3.289438,3.297683,2.965568,3.225055
3.289216,3.297688,2.957509,3.225055
3.289383,3.297739,2.961539,3.227473
3.289388,3.297708,2.960733,3.226667
3.289347,3.297623,2.959121,3.225055
3.289282,3.297784,2.958315,3.227473
3.289337,3.297572,2.956703,3.224249
3.289508,3.297779,2.959121,3.228278
3.289196,3.297542,2.959121,3.219414
3.289342,3.297633,2.953480,3.224249
3.289237,3.297688,2.955897,3.223443
3.289272,3.297497,2.959121,3.225055
3.289106,3.297578,2.951868,3.214579
3.289121,3.297678,2.952674,3.223443
3.289131,3.297557,2.951868,3.221832
3.289070,3.297512,2.952674,3.219414
3.289000,3.297467,2.947033,3.208938
3.289005,3.297447,2.951062,3.218608
3.288980,3.297698,2.943004,3.228278
3.288889,3.297421,2.942198,3.213773
3.288894,3.297527,2.946227,3.220220
3.288839,3.297467,2.943004,3.217802
3.288990,3.297502,2.943004,3.221832
3.288728,3.297250,2.938974,3.213773
3.288743,3.297336,2.938974,3.212161
3.288713,3.297386,2.938974,3.215385
3.288748,3.297366,2.940586,3.214579
3.288592,3.297195,2.939780,3.209743
3.288652,3.297361,2.938169,3.216996
3.288622,3.297270,2.931722,3.212161
3.288466,3.297210,2.937363,3.209743
3.288335,3.297210,2.927692,3.209743
3.288411,3.297210,2.931722,3.209743
3.288345,3.297235,2.927692,3.212967
3.288340,3.297170,2.926081,3.209743
3.288244,3.297185,2.921245,3.204103
3.288285,3.297094,2.924469,3.206520
3.288285,3.297215,2.922051,3.209743
3.288058,3.297008,2.919634,3.206520
3.288108,3.297149,2.919634,3.208938
3.288133,3.297144,2.918022,3.208938
3.288219,3.297099,2.920439,3.209743
3.287957,3.296953,2.921245,3.199267
3.288038,3.297084,2.920439,3.206520
3.288078,3.297114,2.917216,3.205714
3.288073,3.297094,2.924469,3.204103
3.287917,3.297034,2.912381,3.204908
3.288118,3.297109,2.915604,3.205714
3.288083,3.297170,2.917216,3.208938
3.288048,3.297089,2.921245,3.204908
3.287992,3.297159,2.914798,3.207326
3.288118,3.297185,2.917216,3.206520
3.288249,3.297205,2.922051,3.209743
3.288113,3.297154,2.922051,3.209743
3.288179,3.297255,2.922051,3.211355
3.288249,3.297139,2.921245,3.209743
3.288345,3.297250,2.920439,3.212161
3.288194,3.297119,2.925275,3.208132
3.288335,3.297200,2.926081,3.209743
3.288315,3.297190,2.926081,3.209743
3.288481,3.297175,2.929304,3.207326
3.288259,3.297175,2.925275,3.207326
3.288355,3.297230,2.928498,3.205714
3.288335,3.297295,2.923663,3.209743
3.288310,3.297185,2.928498,3.208938
3.288290,3.297225,2.924469,3.209743
3.288325,3.297230,2.929304,3.209743
3.288335,3.297316,2.926081,3.209743
3.288295,3.297240,2.922051,3.208938
3.288335,3.297195,2.926081,3.210549
3.288335,3.297185,2.925275,3.210549
3.288426,3.297235,2.934139,3.209743
3.288259,3.297054,2.925275,3.204908
3.288244,3.297154,2.925275,3.209743
3.288249,3.297175,2.922857,3.209743
3.288259,3.297109,2.921245,3.202491
3.288139,3.297013,2.917216,3.205714
3.288159,3.297144,2.922051,3.207326
3.288179,3.297170,2.927692,3.209743
3.288234,3.297084,2.924469,3.200879
3.287912,3.297089,2.911575,3.204103
3.288068,3.297144,2.915604,3.207326
3.288098,3.297195,2.917216,3.212161
3.287967,3.297039,2.913993,3.204908
3.287942,3.297119,2.911575,3.207326
3.287947,3.297013,2.914798,3.205714
3.287972,3.297139,2.921245,3.204103
3.287801,3.296948,2.913993,3.199267
3.287912,3.297079,2.914798,3.207326
3.287841,3.296963,2.909158,3.198462
3.287982,3.297094,2.917216,3.209743
3.287705,3.296923,2.904322,3.196850
3.287741,3.296993,2.905128,3.200073
3.287726,3.296928,2.908352,3.204103
3.287741,3.296948,2.904322,3.192015
3.287569,3.296872,2.901905,3.198462
3.287595,3.296882,2.900293,3.200073
3.287595,3.297114,2.904322,3.214579
3.287534,3.296837,2.897070,3.200879
3.287494,3.297003,2.901099,3.199267
3.287529,3.296898,2.901099,3.198462
3.287655,3.296923,2.901099,3.208132
3.287509,3.296787,2.900293,3.196044
3.287519,3.296862,2.898681,3.198462
3.287554,3.296837,2.901099,3.198462
3.287519,3.296792,2.902711,3.196850
3.287423,3.296822,2.893040,3.193626
3.287464,3.296852,2.899487,3.195238
3.287459,3.296837,2.900293,3.196850
3.287554,3.296757,2.901099,3.196850
3.287232,3.296746,2.891428,3.196044
3.287418,3.296822,2.896264,3.200879
3.287383,3.296923,2.892234,3.200073
3.287353,3.296762,2.898681,3.194432
3.287287,3.296842,2.892234,3.192015
3.287287,3.296797,2.895458,3.196044
3.287403,3.296867,2.892234,3.201685
3.287227,3.296706,2.889011,3.196044
3.287277,3.296752,2.889011,3.192821
3.287287,3.296802,2.889817,3.196850
3.287338,3.296691,2.897070,3.200879
3.287111,3.296616,2.891428,3.193626
3.287166,3.296762,2.894652,3.196850
3.287192,3.296762,2.891428,3.195238
3.287202,3.296671,2.889011,3.192015
3.287005,3.296696,2.888205,3.193626
3.286975,3.296752,2.888205,3.194432
3.287217,3.296782,2.890623,3.196044
3.287025,3.296666,2.895458,3.193626
3.287096,3.296736,2.882564,3.193626
3.287146,3.296726,2.891428,3.199267
3.287237,3.296862,2.888205,3.200879
3.287015,3.296651,2.883370,3.187985
3.286955,3.296746,2.880147,3.196044
3.287116,3.296656,2.888205,3.193626
3.287242,3.296691,2.889817,3.196044
3.286905,3.296515,2.883370,3.187180
3.287036,3.296696,2.883370,3.195238
3.286975,3.296696,2.879341,3.196044
3.287076,3.296631,2.881758,3.187985
3.286759,3.296636,2.876117,3.184762
3.287056,3.296716,2.881758,3.194432
3.287030,3.296726,2.882564,3.196044
3.286935,3.296666,2.878535,3.191209
3.286920,3.296686,2.882564,3.192015
3.287207,3.296792,2.889817,3.197656
3.287338,3.296893,2.893040,3.201685
3.287408,3.296847,2.898681,3.196850
3.287494,3.296933,2.900293,3.202491
3.287675,3.297034,2.906740,3.204908
3.287947,3.297159,2.918828,3.208132
3.288018,3.297089,2.910769,3.202491
3.288285,3.297230,2.926081,3.209743
3.288411,3.297326,2.928498,3.212161
3.288723,3.297386,2.938974,3.219414
3.288647,3.297386,2.938169,3.212967
3.288960,3.297598,2.947839,3.222637
3.289060,3.297633,2.948645,3.221026
3.289136,3.297628,2.951062,3.223443
3.289121,3.297593,2.951868,3.221832
3.289257,3.297784,2.956703,3.226667
3.289267,3.297875,2.959121,3.226667
3.289252,3.297648,2.956703,3.223443
3.289302,3.297764,2.951868,3.226667
3.289453,3.297744,2.959927,3.227473
3.289534,3.297920,2.976850,3.232308
3.289373,3.297653,2.960733,3.221026
3.289393,3.297754,2.964762,3.230696
3.289398,3.297719,2.959927,3.225055
3.289453,3.297819,2.963956,3.227473
3.289267,3.297598,2.953480,3.222637
3.289337,3.297734,2.956703,3.231502
3.289383,3.297739,2.956703,3.226667
3.289237,3.297618,2.956703,3.217802
3.289111,3.297643,2.952674,3.220220
3.289191,3.297643,2.951868,3.225055
3.289186,3.297824,2.953480,3.229084
3.289136,3.297603,2.951868,3.221832
3.289141,3.297663,2.949450,3.223443
3.289121,3.297608,2.953480,3.219414
3.289151,3.297653,2.951868,3.227473
3.289060,3.297341,2.947033,3.216996
3.289040,3.297537,2.947033,3.221026
3.288970,3.297557,2.951062,3.221026
3.289050,3.297572,2.949450,3.221026
3.288824,3.297316,2.944615,3.213773
3.288884,3.297386,2.947033,3.218608
3.288874,3.297477,2.943810,3.218608
3.288949,3.297366,2.948645,3.211355
3.288672,3.297341,2.938974,3.210549
3.288758,3.297386,2.939780,3.215385
3.288657,3.297457,2.938974,3.214579
3.288582,3.297280,2.934945,3.214579
3.288557,3.297331,2.934945,3.211355
3.288627,3.297311,2.938974,3.209743
3.288612,3.297371,2.934945,3.216996
3.288441,3.297149,2.930110,3.197656
3.288400,3.297235,2.928498,3.209743
3.288380,3.297205,2.930110,3.208132
3.288451,3.297270,2.928498,3.211355
3.288310,3.297144,2.924469,3.203297
3.288285,3.297200,2.925275,3.209743
3.288264,3.297175,2.918828,3.208938
3.288275,3.297114,2.921245,3.208132
3.288028,3.297084,2.921245,3.205714
3.288174,3.297149,2.923663,3.208938
3.288113,3.297240,2.922051,3.207326
3.288068,3.297084,2.917216,3.206520
3.288038,3.297144,2.912381,3.204908
3.288083,3.297165,2.921245,3.209743
3.288204,3.297190,2.921245,3.209743
3.288033,3.297119,2.917216,3.204103
3.288159,3.297180,2.918828,3.204908
3.288164,3.297154,2.925275,3.207326
3.288264,3.297175,2.924469,3.210549
3.288174,3.297109,2.922051,3.201685
3.288259,3.297180,2.926081,3.208132
3.288259,3.297175,2.926081,3.209743
3.288355,3.297205,2.926887,3.212161
3.288164,3.297099,2.923663,3.207326
3.288315,3.297195,2.926081,3.210549
3.288325,3.297240,2.926887,3.209743
3.288315,3.297215,2.924469,3.209743
3.288305,3.297185,2.921245,3.209743
3.288360,3.297220,2.930110,3.211355
3.288395,3.297336,2.926887,3.211355
3.288320,3.297225,2.927692,3.209743
3.288330,3.297285,2.926081,3.212161
3.288481,3.297210,2.929304,3.210549
3.288562,3.297240,2.939780,3.214579
3.288305,3.297154,2.926081,3.207326
3.288390,3.297250,2.930110,3.211355
3.288350,3.297235,2.927692,3.210549
3.288375,3.297245,2.934945,3.209743
3.288295,3.297180,2.925275,3.208132
3.288380,3.297280,2.929304,3.209743
3.288375,3.297205,2.928498,3.209743
3.288441,3.297180,2.931722,3.208132
3.288229,3.297185,2.921245,3.209743
3.288275,3.297175,2.926081,3.209743
3.288285,3.297386,2.924469,3.222637
3.288224,3.297139,2.922857,3.208938
3.288249,3.297180,2.923663,3.209743
3.288244,3.297210,2.922857,3.208938
3.288421,3.297265,2.930110,3.209743
3.288128,3.297049,2.922051,3.210549
3.288159,3.297205,2.919634,3.209743
3.288068,3.297139,2.921245,3.208938
3.288078,3.297089,2.922051,3.208938
3.287851,3.297054,2.912381,3.201685
3.287942,3.297129,2.913187,3.204908
3.287998,3.297089,2.913187,3.205714
3.287851,3.296998,2.910769,3.201685
3.287746,3.296958,2.907546,3.204908
3.287806,3.296933,2.911575,3.205714
3.287846,3.297190,2.909963,3.219414
3.287771,3.296943,2.902711,3.204103
3.287715,3.297069,2.907546,3.206520
3.287796,3.296993,2.909158,3.202491
3.287917,3.297094,2.910769,3.202491
3.287625,3.296852,2.901905,3.196850
3.287690,3.296948,2.905128,3.203297
3.287610,3.296933,2.905934,3.201685
3.287741,3.297008,2.907546,3.202491
3.287474,3.296782,2.904322,3.196850
3.287544,3.296888,2.904322,3.204103
3.287554,3.296872,2.900293,3.197656
3.287610,3.296827,2.902711,3.201685
3.287393,3.296807,2.893040,3.195238
3.287499,3.296867,2.899487,3.199267
3.287449,3.296963,2.900293,3.200073
3.287418,3.296802,2.898681,3.195238
3.287428,3.296857,2.894652,3.192821
3.287464,3.296837,2.895458,3.197656
3.287474,3.296882,2.897070,3.200073
3.287388,3.296706,2.892234,3.194432
3.287443,3.296888,2.895458,3.198462
3.287373,3.296862,2.896264,3.196850
3.287489,3.296933,2.900293,3.209743
3.287187,3.296752,2.889817,3.195238
3.287368,3.296812,2.899487,3.196850
3.287348,3.296772,2.895458,3.196850
3.287373,3.296817,2.897876,3.192015
3.287131,3.296741,2.884176,3.196044
3.287292,3.296767,2.893846,3.201685
3.287302,3.296857,2.889817,3.196044
3.287267,3.296741,2.891428,3.192015
3.287136,3.296757,2.883370,3.196850
3.287177,3.296762,2.888205,3.183956
3.287207,3.296837,2.888205,3.198462
3.287161,3.296691,2.882564,3.195238
3.287046,3.296752,2.881758,3.193626
3.287121,3.296797,2.882564,3.196850
3.287106,3.296696,2.896264,3.196850
3.286995,3.296540,2.881758,3.189597
3.287030,3.296772,2.882564,3.194432
3.287086,3.296741,2.878535,3.194432
3.287071,3.296676,2.882564,3.185568
3.286829,3.296656,2.877729,3.191209
3.286945,3.296721,2.880952,3.193626
3.287020,3.296741,2.881758,3.192015
3.286985,3.296616,2.883370,3.193626
3.286864,3.296636,2.876117,3.194432
3.286925,3.296701,2.884982,3.194432
3.287116,3.296746,2.888205,3.200073
3.287086,3.296721,2.889817,3.196044
3.287141,3.296792,2.888205,3.196044
3.287328,3.296802,2.892234,3.192015
3.287569,3.296973,2.905128,3.199267
3.287433,3.296812,2.900293,3.196850
3.287720,3.297064,2.909158,3.199267
3.287851,3.297119,2.912381,3.207326
3.288204,3.297180,2.914798,3.212161
3.288169,3.297185,2.922051,3.208132
3.288476,3.297250,2.927692,3.211355
3.288531,3.297477,2.934139,3.216996
3.288718,3.297487,2.947033,3.216996
3.288793,3.297527,2.939780,3.220220
3.289090,3.297623,2.943004,3.228278
3.289126,3.297804,2.951868,3.233919
3.289196,3.297653,2.951868,3.226667
3.289226,3.297774,2.951868,3.219414
3.289373,3.297834,2.957509,3.225861
3.289614,3.297925,2.960733,3.237143
3.289393,3.297643,2.963150,3.223443
3.289534,3.297809,2.963956,3.233919
3.289488,3.297855,2.962344,3.228278
3.289609,3.297930,2.968791,3.231502
3.289383,3.297714,2.964762,3.224249
3.289408,3.297754,2.963956,3.227473
3.289493,3.297804,2.962344,3.226667
3.289483,3.297623,2.972015,3.227473
3.289378,3.297759,2.957509,3.224249
3.289433,3.297834,2.960733,3.230696
3.289408,3.297849,2.960733,3.235531
3.289221,3.297623,2.951868,3.223443
3.289231,3.297779,2.955897,3.226667
3.289247,3.297688,2.957509,3.225861
3.289307,3.297754,2.956703,3.223443
3.289090,3.297562,2.955897,3.226667
3.289176,3.297683,2.951868,3.225055
3.289151,3.297598,2.950256,3.222637
3.289191,3.297557,2.959121,3.225055
3.289060,3.297522,2.951868,3.220220
3.289095,3.297542,2.951868,3.221832
3.289065,3.297527,2.947839,3.221832
3.288960,3.297351,2.951868,3.216996
3.288773,3.297462,2.941392,3.217802
3.288939,3.297502,2.946227,3.214579
3.288919,3.297663,2.944615,3.219414
3.288844,3.297401,2.944615,3.215385
3.288753,3.297442,2.940586,3.216996
3.288778,3.297396,2.940586,3.217802
3.288813,3.297502,2.938974,3.225861
3.288637,3.297316,2.939780,3.218608
3.288637,3.297401,2.938169,3.216996
3.288657,3.297311,2.938169,3.217802
3.288662,3.297351,2.938974,3.212161
3.288431,3.297230,2.930110,3.209743
3.288501,3.297336,2.930916,3.208938
3.288375,3.297270,2.933333,3.210549
3.288456,3.297185,2.930110,3.208132
3.288290,3.297165,2.926081,3.204908
3.288295,3.297200,2.922051,3.209743
3.288300,3.297245,2.926887,3.210549
3.288254,3.297170,2.920439,3.209743
3.288113,3.297195,2.922051,3.205714
3.288219,3.297170,2.921245,3.209743
3.288229,3.297215,2.922857,3.209743
3.288113,3.297064,2.918022,3.204908
3.288108,3.297170,2.921245,3.208132
3.288113,3.297139,2.920439,3.208132
3.288249,3.297175,2.931722,3.209743
3.288068,3.297084,2.912381,3.204103
3.288239,3.297215,2.926081,3.209743
3.288169,3.297170,2.918022,3.208938
3.288169,3.297185,2.922857,3.209743
3.288058,3.297124,2.920439,3.208938
3.288154,3.297195,2.926081,3.209743
3.288285,3.297220,2.923663,3.209743
3.288179,3.297220,2.923663,3.209743
3.288259,3.297200,2.920439,3.209743
3.288295,3.297190,2.926081,3.214579
3.288315,3.297366,2.926081,3.212161
3.288295,3.297154,2.925275,3.209743
3.288310,3.297280,2.926081,3.205714
3.288320,3.297235,2.926887,3.209743
3.288511,3.297235,2.926887,3.216996
3.288300,3.297170,2.926081,3.205714
3.288350,3.297195,2.926081,3.215385
3.288345,3.297210,2.926081,3.209743
3.288471,3.297200,2.926887,3.209743
3.288269,3.297175,2.925275,3.212161
3.288300,3.297250,2.926081,3.212161
3.288335,3.297180,2.926081,3.205714
3.288325,3.297220,2.926887,3.211355
3.288239,3.297180,2.926081,3.209743
3.288320,3.297225,2.926081,3.208938
3.288290,3.297386,2.922051,3.209743
3.288229,3.297215,2.918828,3.210549
3.288179,3.297170,2.923663,3.212161
3.288249,3.297170,2.924469,3.209743
3.288249,3.297260,2.926081,3.211355
3.288139,3.297084,2.922051,3.208938
3.288199,3.297165,2.921245,3.208938
3.288169,3.297144,2.920439,3.211355
3.288149,3.297104,2.924469,3.209743
3.287917,3.297064,2.915604,3.201685
3.288048,3.297114,2.918022,3.207326
3.288003,3.297139,2.915604,3.209743
3.288033,3.297029,2.913187,3.204103
3.287821,3.297059,2.910769,3.197656
3.287952,3.297104,2.912381,3.209743
3.287867,3.297240,2.911575,3.204908
3.287771,3.297049,2.911575,3.202491
3.287761,3.297069,2.904322,3.204103
3.287851,3.297044,2.910769,3.200879
3.287877,3.297144,2.912381,3.205714
3.287559,3.296767,2.907546,3.198462
3.287710,3.297003,2.902711,3.201685
3.287569,3.296933,2.903517,3.204103
3.287746,3.296958,2.905128,3.201685
3.287509,3.296802,2.899487,3.196850
3.287600,3.296933,2.901099,3.204908
3.287519,3.296968,2.900293,3.197656
3.287504,3.296837,2.905128,3.200879
3.287393,3.296832,2.897070,3.197656
3.287519,3.296827,2.900293,3.199267
3.287514,3.296948,2.897876,3.200879
3.287383,3.296746,2.900293,3.197656
3.287383,3.296872,2.897876,3.199267
3.287459,3.296867,2.895458,3.196850
3.287469,3.296908,2.896264,3.201685
3.287323,3.296767,2.896264,3.196044
3.287393,3.296882,2.891428,3.198462
3.287348,3.296792,2.897070,3.200879
3.287449,3.296857,2.897070,3.204908
3.287131,3.296706,2.891428,3.191209
3.287313,3.296782,2.880147,3.196850
3.287242,3.296716,2.891428,3.196850
3.287302,3.296822,2.894652,3.196850
3.287036,3.296686,2.888205,3.192015
3.287302,3.296656,2.893040,3.196850
3.287197,3.296877,2.884176,3.196850
3.287030,3.296721,2.881758,3.194432
3.287000,3.296757,2.878535,3.192821
3.287136,3.296721,2.888205,3.189597
3.287131,3.296898,2.888205,3.197656
3.287005,3.296701,2.888205,3.193626
3.287000,3.296731,2.881758,3.194432
3.287051,3.296746,2.889011,3.196044
3.287126,3.296746,2.895458,3.198462
3.287000,3.296530,2.876923,3.189597
3.287036,3.296736,2.888205,3.187985
3.286965,3.296701,2.883370,3.193626
3.287046,3.296711,2.888205,3.192821
3.286693,3.296666,2.876923,3.192015
3.286955,3.296736,2.880147,3.195238
3.286935,3.296752,2.888205,3.196044
3.286874,3.296731,2.883370,3.196850
3.286799,3.296641,2.878535,3.192015
3.286975,3.296696,2.881758,3.199267
3.286879,3.296832,2.879341,3.209743
3.286809,3.296681,2.876923,3.196044
3.286849,3.296676,2.875311,3.190403
3.286844,3.296686,2.879341,3.200879
3.287036,3.296726,2.880147,3.192821
3.286743,3.296500,2.880147,3.192015
3.286930,3.296671,2.883370,3.192015
3.286935,3.296731,2.879341,3.192015
3.287166,3.296762,2.882564,3.197656
3.286995,3.296746,2.895458,3.193626
3.287232,3.296888,2.891428,3.192821
3.287469,3.296938,2.898681,3.200879
3.287584,3.296988,2.902711,3.199267
3.287605,3.297059,2.900293,3.204908
3.288003,3.297175,2.910769,3.208938
3.288204,3.297442,2.921245,3.209743
3.288330,3.297336,2.926081,3.212161
3.288486,3.297487,2.928498,3.218608
3.288718,3.297527,2.938169,3.212161
3.288909,3.297683,2.947033,3.224249
3.288980,3.297567,2.942198,3.216996
3.289131,3.297683,2.952674,3.225055
3.289156,3.297764,2.952674,3.225055
3.289317,3.297764,2.961539,3.229084
3.289221,3.297693,2.957509,3.228278
3.289418,3.297804,2.960733,3.230696
3.289398,3.297880,2.961539,3.231502
3.289403,3.297819,2.963150,3.233919
3.289297,3.297809,2.959121,3.227473
3.289463,3.297930,2.962344,3.231502
3.289483,3.297855,2.963956,3.233114
3.289332,3.297890,2.956703,3.227473
3.289423,3.297849,2.963150,3.234725
3.289463,3.297844,2.964762,3.233919
3.289765,3.297960,2.963150,3.234725
3.289413,3.297719,2.958315,3.225861
3.289423,3.297774,2.962344,3.226667
3.289367,3.297834,2.961539,3.227473
3.289418,3.297764,2.960733,3.233114
3.289181,3.297643,2.954286,3.225861
3.289307,3.297693,2.953480,3.227473
3.289186,3.297729,2.951868,3.226667
3.289262,3.297628,2.951868,3.227473
3.289075,3.297618,2.951868,3.222637
3.289106,3.297663,2.951062,3.225055
3.289131,3.297885,2.952674,3.225055
3.289070,3.297497,2.951062,3.222637
3.289020,3.297638,2.950256,3.221832
3.289106,3.297608,2.951062,3.223443
3.289095,3.297754,2.949450,3.225055
3.288990,3.297457,2.946227,3.217802
3.289030,3.297583,2.947033,3.221026
3.288949,3.297547,2.943810,3.220220
3.288995,3.297492,2.951868,3.222637
3.288763,3.297371,2.943004,3.221026
3.288808,3.297552,2.938974,3.218608
3.288773,3.297472,2.938974,3.215385
3.288849,3.297391,2.943004,3.218608
3.288541,3.297321,2.934945,3.213773
3.288738,3.297462,2.937363,3.214579
3.288637,3.297472,2.936557,3.214579
3.288572,3.297306,2.938974,3.212161
3.288446,3.297265,2.930916,3.212161
3.288446,3.297260,2.932528,3.212161
3.288411,3.297436,2.927692,3.215385
3.288340,3.297195,2.928498,3.209743
3.288350,3.297265,2.925275,3.211355
3.288310,3.297200,2.926887,3.210549
3.288390,3.297250,2.921245,3.213773
3.288204,3.297104,2.923663,3.207326
3.288219,3.297154,2.926081,3.209743
3.288285,3.297205,2.926081,3.209743
3.288310,3.297109,2.930110,3.211355
3.288003,3.297114,2.918022,3.205714
3.288214,3.297195,2.925275,3.207326
3.288209,3.297190,2.923663,3.209743
3.288058,3.297175,2.920439,3.209743
3.288113,3.297139,2.917216,3.207326
3.288179,3.297180,2.922051,3.209743
3.288224,3.297346,2.923663,3.208132
3.288189,3.297074,2.920439,3.210549
3.288214,3.297205,2.922051,3.209743
3.288285,3.297260,2.926081,3.212161
3.288370,3.297250,2.926081,3.211355
3.288234,3.297190,2.926081,3.209743
3.288375,3.297260,2.926887,3.216996
3.288355,3.297285,2.926081,3.216996
3.288526,3.297250,2.938169,3.219414
3.288295,3.297190,2.926081,3.209743
3.288350,3.297341,2.930110,3.211355
3.288405,3.297346,2.926887,3.209743
3.288395,3.297336,2.926887,3.209743
3.288345,3.297280,2.926081,3.211355
3.288491,3.297366,2.934139,3.211355
3.288441,3.297416,2.929304,3.216996
3.288395,3.297225,2.926081,3.211355
3.288365,3.297351,2.927692,3.216996
3.288411,3.297285,2.930916,3.209743
3.288607,3.297386,2.934139,3.217802
3.288411,3.297175,2.926081,3.208132
3.288350,3.297326,2.926887,3.212161
3.288305,3.297280,2.926081,3.212967
3.288426,3.297285,2.929304,3.213773
3.288259,3.297195,2.926081,3.207326
3.288249,3.297270,2.927692,3.210549
3.288280,3.297250,2.926081,3.209743
3.288330,3.297270,2.926081,3.209743
3.288078,3.297165,2.920439,3.208132
3.288280,3.297215,2.925275,3.212967
3.288179,3.297351,2.922051,3.217802
3.288118,3.297144,2.921245,3.208938
3.288043,3.297170,2.918022,3.209743
3.288093,3.297210,2.917216,3.209743
3.288108,3.297205,2.918828,3.209743
3.287957,3.297044,2.913993,3.200073
3.288013,3.297175,2.917216,3.207326
3.287922,3.297134,2.913187,3.207326
3.288103,3.297099,2.918022,3.208132
3.287816,3.297003,2.909963,3.201685
3.287831,3.297089,2.908352,3.208938
3.287887,3.297144,2.910769,3.205714
3.287952,3.296998,2.915604,3.205714
3.287655,3.297029,2.907546,3.206520
3.287781,3.296998,2.908352,3.205714
3.287791,3.297069,2.908352,3.206520
3.287579,3.296933,2.912381,3.204103
3.287574,3.297059,2.902711,3.200879
3.287590,3.296918,2.903517,3.205714
3.287726,3.297109,2.904322,3.207326
3.287579,3.296918,2.900293,3.198462
3.287524,3.296993,2.901905,3.199267
3.287489,3.296938,2.901099,3.204908
3.287670,3.297034,2.902711,3.200879
3.287443,3.296782,2.895458,3.197656
3.287494,3.296923,2.899487,3.198462
3.287489,3.296963,2.900293,3.202491
3.287413,3.296827,2.900293,3.196850
3.287282,3.296842,2.894652,3.199267
3.287469,3.296893,2.902711,3.197656
3.287489,3.297008,2.899487,3.196850
3.287408,3.296852,2.900293,3.196850
3.287267,3.296847,2.894652,3.196850
3.287323,3.296857,2.896264,3.196850
3.287408,3.296923,2.896264,3.204103
3.287262,3.296802,2.892234,3.192015
3.287292,3.296867,2.892234,3.196044
3.287287,3.296862,2.897876,3.199267
3.287403,3.296908,2.899487,3.197656
3.287232,3.296691,2.884176,3.191209
3.287207,3.296797,2.894652,3.199267
3.287172,3.296787,2.892234,3.199267
3.287222,3.296787,2.897070,3.196850
3.286925,3.296767,2.881758,3.192821
3.287101,3.296757,2.891428,3.196044
3.287056,3.296817,2.891428,3.199267
3.287151,3.296777,2.881758,3.196850
3.286879,3.296772,2.881758,3.195238
3.287146,3.296767,2.896264,3.196850
3.287156,3.296903,2.889817,3.196850
3.287036,3.296701,2.888205,3.196044
3.287025,3.296762,2.881758,3.194432
3.286960,3.296716,2.888205,3.196850
3.287262,3.296822,2.879341,3.196850
3.286854,3.296616,2.883370,3.189597
3.287156,3.296752,2.889817,3.194432
3.286950,3.296767,2.880147,3.196044
3.287025,3.296701,2.889817,3.198462
3.286799,3.296731,2.880147,3.191209
3.286930,3.296721,2.880147,3.196044
3.286940,3.296762,2.879341,3.194432
3.286915,3.296656,2.876923,3.195238
3.286738,3.296686,2.869670,3.192015
3.286894,3.296767,2.876923,3.196850
3.286940,3.296787,2.874506,3.196850
3.286874,3.296741,2.879341,3.199267
3.286879,3.296787,2.881758,3.196850
3.287096,3.296762,2.882564,3.196850
3.287489,3.296893,2.894652,3.197656
3.287272,3.296787,2.896264,3.194432
3.287524,3.296978,2.900293,3.204908
3.287635,3.297039,2.901099,3.204103
3.287897,3.297165,2.913187,3.208938
3.287922,3.297195,2.914798,3.205714
3.288269,3.297250,2.923663,3.215385
3.288411,3.297331,2.930916,3.213773
3.288698,3.297452,2.931722,3.209743
3.288652,3.297467,2.935751,3.221026
3.288864,3.297608,2.944615,3.225055
3.289045,3.297759,2.949450,3.226667
3.289085,3.297668,2.952674,3.226667
3.289121,3.297824,2.952674,3.226667
3.289252,3.297824,2.956703,3.227473
3.289534,3.297950,2.962344,3.233919
3.289388,3.297749,2.959121,3.227473
3.289438,3.297900,2.959121,3.231502
3.289428,3.297824,2.960733,3.232308
3.289589,3.297870,2.968791,3.233114
3.289428,3.297744,2.963956,3.225861
3.289569,3.297950,2.967180,3.232308
3.289488,3.297875,2.962344,3.233114
3.289604,3.297708,2.970403,3.233919
3.289262,3.297764,2.955897,3.226667
3.289473,3.297860,2.963956,3.227473
3.289413,3.297844,2.960733,3.230696
3.289312,3.297719,2.961539,3.226667
3.289267,3.297819,2.959927,3.225055
3.289292,3.297734,2.959927,3.227473
3.289398,3.297789,2.955897,3.225055
3.289171,3.297698,2.953480,3.225055
3.289176,3.297714,2.951868,3.224249
3.289126,3.297688,2.955897,3.224249
3.289231,3.297744,2.954286,3.225861
3.289106,3.297452,2.952674,3.221026
3.289116,3.297562,2.952674,3.220220
3.289090,3.297623,2.951868,3.225861
3.289111,3.297598,2.952674,3.225055
3.288879,3.297527,2.943004,3.219414
3.289000,3.297567,2.947033,3.221832
3.288970,3.297668,2.945421,3.219414
3.288738,3.297487,2.946227,3.215385
3.288783,3.297487,2.939780,3.216996
3.288854,3.297507,2.943004,3.218608
3.288813,3.297578,2.943004,3.222637
3.288728,3.297396,2.938974,3.210549
3.288713,3.297492,2.938169,3.218608
3.288713,3.297396,2.940586,3.217802
3.288728,3.297477,2.951062,3.221026
3.288567,3.297225,2.930916,3.209743
3.288647,3.297401,2.936557,3.211355
3.288516,3.297280,2.931722,3.212161
3.288557,3.297165,2.930110,3.211355
3.288330,3.297240,2.926081,3.208938
3.288380,3.297290,2.929304,3.209743
3.288315,3.297255,2.926887,3.210549
3.288249,3.297220,2.926081,3.209743
3.288204,3.297185,2.922857,3.208938
3.288285,3.297225,2.925275,3.209743
3.288269,3.297265,2.925275,3.223443
3.288164,3.297159,2.923663,3.207326
3.288174,3.297220,2.922051,3.212967
3.288118,3.297089,2.923663,3.209743
3.288229,3.297285,2.926081,3.209743
3.288214,3.297079,2.922051,3.206520
3.288229,3.297215,2.924469,3.209743
3.288234,3.297149,2.926081,3.210549
3.288300,3.297124,2.922857,3.216996
3.288038,3.297134,2.917216,3.208938
3.288214,3.297250,2.921245,3.209743
3.288305,3.297240,2.926887,3.209743
3.288305,3.297149,2.915604,3.209743
3.288249,3.297215,2.919634,3.208938
3.288350,3.297220,2.926887,3.212161
3.288385,3.297527,2.926887,3.215385
3.288335,3.297220,2.925275,3.211355
3.288350,3.297321,2.926081,3.215385
3.288385,3.297336,2.926887,3.213773
3.288627,3.297416,2.930110,3.217802
3.288411,3.297255,2.928498,3.207326
3.288446,3.297381,2.928498,3.214579
3.288461,3.297336,2.930916,3.214579
3.288577,3.297482,2.931722,3.215385
3.288360,3.297225,2.926081,3.209743
3.288496,3.297431,2.926887,3.212967
3.288411,3.297336,2.933333,3.211355
3.288380,3.297275,2.930916,3.210549
3.288295,3.297230,2.923663,3.209743
3.288411,3.297245,2.929304,3.211355
3.288365,3.297447,2.928498,3.213773
3.288320,3.297200,2.914798,3.209743
3.288310,3.297295,2.920439,3.210549
3.288330,3.297230,2.922051,3.209743
3.288426,3.297401,2.926887,3.213773
3.288254,3.297195,2.922051,3.209743
3.288310,3.297200,2.924469,3.210549
3.288305,3.297215,2.920439,3.210549
3.288285,3.297311,2.918828,3.209743
3.288133,3.297139,2.926081,3.205714
3.288219,3.297205,2.925275,3.206520
3.288154,3.297159,2.923663,3.208938
3.288189,3.297139,2.924469,3.208132
3.287962,3.297170,2.912381,3.208132
3.288028,3.297170,2.918828,3.207326
3.287992,3.297225,2.921245,3.209743
3.287927,3.297129,2.915604,3.207326
3.287882,3.297144,2.912381,3.208132
3.287902,3.297104,2.913187,3.208132
3.287977,3.297215,2.913993,3.208132
3.287791,3.296973,2.912381,3.212967
3.287867,3.297114,2.905128,3.204103
3.287831,3.297079,2.912381,3.202491
3.287947,3.297165,2.913993,3.209743
3.287620,3.296918,2.908352,3.198462
3.287786,3.297074,2.907546,3.200879
3.287731,3.297059,2.904322,3.201685
3.287700,3.296817,2.905128,3.200879
3.287529,3.296943,2.900293,3.205714
3.287595,3.296903,2.907546,3.199267
3.287625,3.297094,2.904322,3.204103
3.287509,3.296933,2.902711,3.198462
3.287479,3.296893,2.900293,3.199267
3.287544,3.296973,2.901905,3.200879
3.287539,3.297109,2.900293,3.196850
3.287479,3.296852,2.898681,3.197656
3.287438,3.296898,2.900293,3.200879
3.287499,3.296913,2.900293,3.200879
3.287559,3.296898,2.892234,3.202491
3.287388,3.296752,2.898681,3.195238
3.287489,3.296847,2.898681,3.202491
3.287438,3.296877,2.900293,3.206520
3.287489,3.296928,2.899487,3.199267
3.287297,3.296782,2.896264,3.196850
3.287413,3.296847,2.897876,3.197656
3.287464,3.296898,2.897876,3.200073
3.287353,3.296797,2.902711,3.187180
3.287328,3.296787,2.891428,3.198462
3.287373,3.296842,2.898681,3.196850
3.287353,3.296953,2.893040,3.192015
3.287227,3.296772,2.893040,3.196850
3.287242,3.296827,2.891428,3.200879
3.287192,3.296807,2.889817,3.195238
3.287398,3.296908,2.888205,3.196850
3.287197,3.296706,2.889817,3.196044
3.287297,3.296792,2.895458,3.196850
3.287262,3.296777,2.891428,3.196044
3.287302,3.296736,2.896264,3.200073
3.287020,3.296696,2.880147,3.191209
3.287207,3.296767,2.889011,3.196044
3.287207,3.296762,2.889817,3.196850
3.287030,3.296746,2.891428,3.192821
3.287066,3.296767,2.882564,3.195238
3.287066,3.296772,2.881758,3.196850
3.287156,3.296862,2.894652,3.191209
3.286930,3.296605,2.883370,3.194432
3.287010,3.296767,2.889011,3.196850
3.287091,3.296706,2.889817,3.196850
3.287378,3.296887,2.889817,3.199267
3.287061,3.296671,2.894652,3.192821
3.287212,3.296797,2.879341,3.193626
3.287232,3.296857,2.888205,3.196850
3.287393,3.296802,2.894652,3.195238
3.287282,3.296807,2.893040,3.191209
3.287509,3.296998,2.900293,3.200879
3.287610,3.297008,2.901099,3.204103
3.287882,3.297064,2.912381,3.204103
3.287867,3.297139,2.908352,3.206520
3.288108,3.297190,2.920439,3.209743
3.288315,3.297542,2.926081,3.215385
3.288441,3.297280,2.936557,3.212161
3.288587,3.297517,2.933333,3.215385
3.288778,3.297542,2.944615,3.214579
3.289075,3.297719,2.947839,3.225055
3.289075,3.297593,2.947033,3.221832
3.289166,3.297638,2.951868,3.226667
3.289201,3.297809,2.951868,3.231502
3.289438,3.297769,2.963956,3.225055
3.289231,3.297769,2.953480,3.219414
3.289408,3.297915,2.961539,3.227473
3.289378,3.297839,2.962344,3.227473
3.289493,3.297824,2.963150,3.224249
3.289312,3.297769,2.955897,3.221832
3.289383,3.297875,2.963956,3.233919
3.289483,3.297915,2.963956,3.231502
3.289362,3.297789,2.954286,3.225055
3.289347,3.297829,2.960733,3.226667
3.289418,3.297829,2.967180,3.227473
3.289483,3.297865,2.962344,3.233114
3.289317,3.297688,2.960733,3.222637
3.289307,3.297799,2.953480,3.230696
3.289322,3.297693,2.960733,3.230696
3.289413,3.297779,2.957509,3.233114
3.289216,3.297578,2.957509,3.220220
3.289201,3.297719,2.955897,3.225861
3.289151,3.297668,2.963956,3.224249
3.289171,3.297532,2.957509,3.229890
3.289000,3.297537,2.947839,3.217802
3.289075,3.297613,2.950256,3.221026
3.289030,3.297648,2.946227,3.222637
3.289020,3.297452,2.947839,3.209743
3.288894,3.297492,2.940586,3.216191
3.288929,3.297512,2.951868,3.221832
3.288874,3.297678,2.947839,3.224249
3.288813,3.297386,2.941392,3.215385
3.288758,3.297497,2.938974,3.220220
3.288773,3.297507,2.939780,3.215385
3.288753,3.297487,2.948645,3.213773
3.288647,3.297306,2.938974,3.214579
3.288672,3.297331,2.939780,3.212967
3.288637,3.297336,2.937363,3.212161
3.288688,3.297306,2.934139,3.220220
3.288466,3.297205,2.926887,3.209743
3.288400,3.297280,2.931722,3.212161
3.288395,3.297260,2.934139,3.214579
3.288441,3.297180,2.923663,3.208132
3.288310,3.297170,2.924469,3.209743
3.288305,3.297180,2.926081,3.209743
3.288280,3.297285,2.926081,3.223443
3.288214,3.297124,2.926081,3.209743
3.288144,3.297195,2.921245,3.208132
3.288204,3.297175,2.923663,3.208938
3.288365,3.297190,2.935751,3.209743
3.288078,3.297018,2.918828,3.203297
3.288154,3.297210,2.923663,3.206520
3.288078,3.297165,2.921245,3.208938
3.288199,3.297059,2.920439,3.209743
3.288023,3.297069,2.916410,3.207326
3.288083,3.297195,2.916410,3.206520
3.288144,3.297180,2.922051,3.208938
3.288139,3.297079,2.918828,3.208938
3.288028,3.297149,2.915604,3.206520
3.288159,3.297210,2.923663,3.209743
3.288269,3.297306,2.923663,3.211355
3.288244,3.297200,2.921245,3.207326
3.288184,3.297240,2.925275,3.211355
3.288290,3.297225,2.926081,3.209743
3.288471,3.297346,2.925275,3.216996
3.288229,3.297149,2.926081,3.208938
3.288395,3.297225,2.926081,3.212161
3.288350,3.297215,2.926081,3.209743
3.288441,3.297240,2.927692,3.221026
3.288280,3.297215,2.926081,3.209743
3.288395,3.297311,2.934139,3.212161
3.288365,3.297326,2.934945,3.209743
3.288400,3.297321,2.928498,3.209743
3.288300,3.297230,2.926887,3.211355
3.288390,3.297275,2.926081,3.210549
3.288345,3.297431,2.927692,3.212967
3.288330,3.297260,2.925275,3.210549
3.288320,3.297301,2.926081,3.213773
3.288330,3.297280,2.926081,3.212161
3.288400,3.297275,2.930916,3.212967
3.288295,3.297114,2.924469,3.208938
3.288310,3.297295,2.926081,3.209743
3.288259,3.297225,2.922051,3.214579
3.288295,3.297220,2.926081,3.209743
3.288214,3.297094,2.924469,3.205714
3.288249,3.297170,2.922051,3.209743
3.288219,3.297210,2.926081,3.209743
3.288229,3.297149,2.926081,3.207326
3.287998,3.297170,2.913993,3.209743
3.288154,3.297154,2.922051,3.209743
3.288149,3.297245,2.920439,3.209743
3.288073,3.297104,2.925275,3.205714
3.287967,3.297159,2.913993,3.210549
3.287962,3.297129,2.920439,3.207326
3.288043,3.297255,2.922051,3.209743
3.287851,3.297059,2.915604,3.201685
3.287947,3.297129,2.913993,3.208938
3.287862,3.297109,2.914798,3.205714
3.287922,3.297159,2.913187,3.207326
3.287867,3.296898,2.912381,3.198462
3.287877,3.297084,2.913187,3.208938
3.287846,3.297059,2.912381,3.200879
3.287897,3.296958,2.914798,3.204103
3.287625,3.296928,2.901099,3.196850
3.287710,3.296973,2.914798,3.205714
3.287761,3.297109,2.909158,3.205714
3.287660,3.296943,2.909158,3.200073
3.287554,3.296953,2.900293,3.200073
3.287610,3.296923,2.902711,3.203297
3.287650,3.297089,2.905934,3.204908
3.287529,3.296852,2.905934,3.195238
3.287524,3.296923,2.900293,3.204103
3.287504,3.296827,2.900293,3.204103
3.287690,3.296933,2.920439,3.208938
3.287469,3.296777,2.899487,3.195238
3.287519,3.296893,2.898681,3.206520
3.287499,3.296872,2.900293,3.199267
3.287514,3.296842,2.902711,3.197656
3.287323,3.296752,2.889817,3.192821
3.287433,3.296862,2.897070,3.202491
3.287469,3.296887,2.896264,3.196850
3.287353,3.296898,2.896264,3.196850
3.287323,3.296807,2.893040,3.196850
3.287438,3.296857,2.897876,3.196850
3.287449,3.296963,2.897070,3.191209
3.287328,3.296777,2.897876,3.204103
3.287277,3.296913,2.891428,3.197656
3.287338,3.296867,2.892234,3.201685
3.287418,3.296933,2.895458,3.196850
3.287197,3.296706,2.889011,3.189597
3.287313,3.296862,2.893846,3.196850
3.287297,3.296767,2.897876,3.196850
3.287408,3.296797,2.897070,3.196850
3.287111,3.296731,2.888205,3.191209
3.287197,3.296782,2.891428,3.196044
3.287151,3.296762,2.892234,3.196044
3.287227,3.296731,2.889011,3.192015
3.286985,3.296757,2.882564,3.183956
3.287096,3.296762,2.888205,3.195238
3.287166,3.296842,2.883370,3.192821
3.287126,3.296651,2.883370,3.194432
3.287025,3.296767,2.883370,3.196044
3.287177,3.296701,2.891428,3.196850
3.287383,3.296837,2.890623,3.198462
3.287091,3.296646,2.883370,3.186374
3.287126,3.296746,2.888205,3.196044
3.287076,3.296762,2.889817,3.196850
3.287242,3.296792,2.882564,3.197656
3.287071,3.296671,2.881758,3.195238
3.287227,3.296857,2.889817,3.198462
3.287292,3.296862,2.891428,3.196850
3.287554,3.296877,2.899487,3.196850
3.287449,3.296923,2.898681,3.197656
3.287635,3.297084,2.909963,3.205714
3.287821,3.297250,2.910769,3.209743
3.287872,3.297139,2.909158,3.208132
3.288159,3.297280,2.917216,3.209743
3.288345,3.297260,2.930110,3.212967
3.288627,3.297567,2.933333,3.213773
3.288662,3.297396,2.936557,3.212967
3.288818,3.297542,2.939780,3.217802
3.289010,3.297633,2.949450,3.222637
3.289186,3.297714,2.951868,3.229890
3.289085,3.297572,2.951868,3.220220
3.289196,3.297814,2.953480,3.232308
3.289307,3.297779,2.956703,3.229084
3.289448,3.297749,2.962344,3.231502
3.289292,3.297779,2.951868,3.230696
3.289408,3.297860,2.959927,3.229084
3.289468,3.297970,2.963956,3.233919
3.289433,3.297824,2.962344,3.228278
3.289393,3.297849,2.963150,3.227473
3.289503,3.297754,2.964762,3.233919
3.289539,3.297865,2.966374,3.229084
3.289393,3.297789,2.963956,3.227473
3.289458,3.297774,2.961539,3.229890
3.289453,3.297784,2.959927,3.225055
3.289458,3.297865,2.968791,3.227473
3.289292,3.297668,2.957509,3.221832
3.289388,3.297804,2.963150,3.228278
3.289347,3.297739,2.959927,3.224249
3.289347,3.297658,2.954286,3.224249
3.289126,3.297598,2.951868,3.221026
3.289161,3.297658,2.955897,3.224249
3.289156,3.297673,2.954286,3.224249
3.289121,3.297522,2.951062,3.218608
3.289080,3.297562,2.952674,3.220220
3.289116,3.297598,2.951868,3.220220
3.289055,3.297633,2.951868,3.226667
3.288954,3.297512,2.946227,3.216996
3.288954,3.297593,2.943810,3.218608
3.288990,3.297522,2.949450,3.220220
3.289015,3.297567,2.943004,3.224249
3.288808,3.297467,2.938974,3.212161
3.288854,3.297482,2.943810,3.219414
3.288889,3.297487,2.944615,3.217802
3.288798,3.297346,2.940586,3.216996
3.288657,3.297341,2.934139,3.217802
3.288693,3.297467,2.938169,3.217802
3.288703,3.297431,2.937363,3.214579
3.288582,3.297245,2.937363,3.214579
3.288526,3.297306,2.933333,3.212161
3.288572,3.297270,2.930110,3.212161
3.288501,3.297366,2.930110,3.226667
3.288400,3.297200,2.927692,3.209743
3.288325,3.297351,2.926081,3.212161
3.288335,3.297341,2.926081,3.212967
3.288496,3.297336,2.939780,3.209743
3.288234,3.297159,2.924469,3.209743
3.288300,3.297205,2.926887,3.210549
3.288259,3.297195,2.924469,3.208938
3.288259,3.297134,2.926081,3.209743
3.288038,3.297069,2.916410,3.205714
3.288204,3.297200,2.923663,3.208132
3.288194,3.297190,2.923663,3.210549
3.288280,3.297124,2.923663,3.216996
3.288103,3.297149,2.920439,3.205714
3.288244,3.297230,2.923663,3.204908
3.288234,3.297200,2.925275,3.209743
3.288184,3.297175,2.920439,3.209743
3.288209,3.297205,2.918828,3.208938
3.288254,3.297220,2.925275,3.209743
3.288295,3.297265,2.924469,3.212161
3.288320,3.297134,2.924469,3.209743
3.288310,3.297260,2.926081,3.209743
3.288380,3.297260,2.926081,3.210549
3.288476,3.297316,2.926887,3.206520
3.288310,3.297205,2.926081,3.208938
3.288375,3.297341,2.928498,3.210549
3.288446,3.297255,2.928498,3.213773
3.288501,3.297235,2.928498,3.204908
3.288320,3.297250,2.926081,3.213773
3.288456,3.297306,2.929304,3.215385
3.288400,3.297371,2.930110,3.215385
3.288350,3.297255,2.927692,3.211355
3.288390,3.297376,2.928498,3.209743
3.288416,3.297280,2.927692,3.211355
3.288511,3.297436,2.930916,3.215385
3.288340,3.297195,2.926081,3.209743
3.288451,3.297270,2.926081,3.209743
3.288370,3.297235,2.926081,3.210549
3.288476,3.297205,2.929304,3.216996
3.288315,3.297185,2.920439,3.206520
3.288380,3.297280,2.926081,3.212161
3.288365,3.297265,2.924469,3.210549
3.288431,3.297285,2.926081,3.221832
3.288224,3.297200,2.923663,3.209743
3.288325,3.297205,2.922051,3.211355
3.288290,3.297260,2.923663,3.209743
3.288315,3.297094,2.918022,3.209743
3.288184,3.297210,2.920439,3.206520
3.288229,3.297230,2.926081,3.209743
3.288244,3.297250,2.920439,3.211355
3.288113,3.297129,2.918022,3.208132
3.288018,3.297175,2.914798,3.212161
3.288058,3.297175,2.917216,3.208938
3.288128,3.297165,2.926081,3.209743
3.287867,3.297029,2.913993,3.209743
3.287932,3.297034,2.917216,3.207326
3.287917,3.297149,2.914798,3.207326
3.287877,3.297064,2.920439,3.208938
3.287781,3.296978,2.911575,3.200073
3.287851,3.297034,2.915604,3.203297
3.287862,3.297129,2.909158,3.204908
3.287756,3.297029,2.910769,3.200879
3.287655,3.296978,2.901099,3.201685
3.287680,3.296993,2.907546,3.205714
3.287751,3.297094,2.905128,3.204103
3.287615,3.296807,2.901099,3.202491
3.287574,3.297003,2.901905,3.205714
3.287665,3.296983,2.907546,3.196850
3.287806,3.297039,2.914798,3.200879
3.287509,3.296832,2.899487,3.196044
3.287564,3.296908,2.901099,3.202491
3.287544,3.296958,2.901905,3.200879
3.287615,3.296817,2.901099,3.192821
3.287423,3.296832,2.893846,3.196850
3.287504,3.296893,2.904322,3.198462
3.287504,3.296913,2.900293,3.200073
3.287469,3.296857,2.888205,3.196850
3.287333,3.296827,2.894652,3.196850
3.287539,3.296857,2.899487,3.200879
3.287393,3.296973,2.897876,3.217802
3.287358,3.296812,2.897070,3.201685
3.287333,3.296913,2.896264,3.197656
3.287443,3.296872,2.897876,3.196850
3.287459,3.296898,2.899487,3.200073
3.287348,3.296752,2.891428,3.196044
3.287343,3.296847,2.895458,3.191209
3.287323,3.296782,2.892234,3.199267
3.287378,3.296822,2.896264,3.198462
3.287051,3.296787,2.890623,3.190403
3.287328,3.296832,2.888205,3.197656
3.287187,3.296802,2.883370,3.196850
3.287242,3.296757,2.889817,3.193626
3.287056,3.296752,2.876117,3.193626
3.287237,3.296772,2.893040,3.196850
3.287146,3.296953,2.893040,3.202491
3.287111,3.296767,2.884982,3.196850
3.287020,3.296792,2.883370,3.197656
3.287101,3.296787,2.889011,3.196850
3.287292,3.296862,2.891428,3.198462
3.286955,3.296666,2.882564,3.192015
3.287126,3.296757,2.881758,3.192821
3.287051,3.296762,2.889011,3.196044
3.287217,3.296827,2.891428,3.199267
3.286874,3.296621,2.882564,3.192821
3.287121,3.296731,2.881758,3.200073
3.287086,3.296701,2.888205,3.201685
3.287086,3.296736,2.888205,3.196850
3.286889,3.296661,2.880147,3.196850
3.287116,3.296772,2.889011,3.196044
3.287166,3.296918,2.894652,3.196850
3.287192,3.296797,2.891428,3.192821
3.287333,3.296998,2.894652,3.198462
3.287469,3.297034,2.900293,3.196850
3.287700,3.297089,2.902711,3.208938
3.287720,3.297099,2.906740,3.203297
3.287947,3.297215,2.915604,3.209743
3.288149,3.297255,2.922051,3.210549
3.288456,3.297431,2.926081,3.215385
3.288526,3.297290,2.931722,3.209743
3.288753,3.297442,2.937363,3.223443
3.288813,3.297578,2.947839,3.221832
3.289080,3.297542,2.951868,3.231502
3.289020,3.297658,2.947839,3.221832
3.289181,3.297764,2.951868,3.226667
3.289262,3.297860,2.951868,3.231502
3.289312,3.297855,2.953480,3.225055
3.289332,3.297849,2.958315,3.233114
3.289433,3.297844,2.963956,3.230696
3.289488,3.297900,2.962344,3.234725
3.289473,3.297784,2.961539,3.229084
3.289423,3.297844,2.962344,3.225055
3.289493,3.297819,2.966374,3.229084
3.289589,3.297865,2.965568,3.231502
3.289468,3.297784,2.962344,3.225861
3.289503,3.297880,2.964762,3.228278
3.289508,3.297880,2.963956,3.230696
3.289559,3.297819,2.962344,3.226667
3.289322,3.297678,2.956703,3.222637
3.289398,3.297749,2.962344,3.227473
3.289367,3.297789,2.959927,3.227473
3.289453,3.297688,2.955897,3.225055
3.289211,3.297708,2.953480,3.222637
3.289242,3.297739,2.957509,3.229890
3.289287,3.297829,2.955897,3.222637
3.289171,3.297578,2.952674,3.221026
3.289131,3.297668,2.951868,3.226667
3.289136,3.297613,2.951868,3.221026
3.289322,3.297678,2.951062,3.225861
3.289005,3.297431,2.951868,3.213773
3.289090,3.297562,2.951868,3.221832
3.289075,3.297583,2.951062,3.215385
3.289095,3.297547,2.951868,3.221832
3.288854,3.297462,2.947839,3.217802
3.288884,3.297527,2.947033,3.227473
3.288949,3.297492,2.943810,3.219414
3.288914,3.297502,2.942198,3.220220
3.288682,3.297457,2.938974,3.215385
3.288834,3.297442,2.943004,3.216996
3.288753,3.297603,2.943810,3.218608
3.288682,3.297346,2.936557,3.220220
3.288662,3.297431,2.938974,3.216996
3.288587,3.297376,2.938974,3.216191
3.288637,3.297447,2.938169,3.217802
3.288405,3.297225,2.931722,3.209743
3.288511,3.297230,2.933333,3.214579
3.288461,3.297280,2.931722,3.212967
3.288491,3.297154,2.931722,3.210549
3.288259,3.297175,2.926081,3.209743
3.288285,3.297215,2.929304,3.209743
3.288350,3.297215,2.926081,3.211355
3.288275,3.297240,2.926081,3.207326
3.288164,3.297180,2.918022,3.209743
3.288259,3.297235,2.922051,3.204103
3.288264,3.297295,2.921245,3.210549
3.288254,3.297190,2.923663,3.209743
3.288113,3.297200,2.922051,3.210549
3.288244,3.297205,2.924469,3.209743
3.288416,3.297336,2.924469,3.216996
3.288179,3.297104,2.921245,3.204103
3.288285,3.297210,2.920439,3.209743
3.288254,3.297200,2.922051,3.210549
3.288325,3.297290,2.926081,3.215385
3.288139,3.297185,2.922051,3.207326
3.288320,3.297326,2.925275,3.209743
3.288315,3.297220,2.926887,3.209743
3.288385,3.297250,2.930916,3.209743
3.288285,3.297205,2.925275,3.208938
3.288446,3.297240,2.927692,3.211355
3.288405,3.297386,2.926887,3.212161
3.288421,3.297235,2.923663,3.214579
3.288365,3.297447,2.926081,3.214579
3.288431,3.297331,2.931722,3.209743
3.288536,3.297442,2.930110,3.216996
3.288370,3.297200,2.926887,3.209743
3.288446,3.297306,2.926887,3.215385
3.288385,3.297280,2.926081,3.211355
3.288511,3.297361,2.933333,3.220220
3.288269,3.297180,2.926887,3.209743
3.288461,3.297426,2.926081,3.211355
3.288451,3.297311,2.928498,3.213773
3.288506,3.297205,2.926887,3.209743
3.288259,3.297220,2.924469,3.209743
3.288320,3.297230,2.926081,3.209743
3.288340,3.297301,2.926081,3.209743
3.288224,3.297220,2.926081,3.209743
3.288264,3.297195,2.926081,3.209743
3.288280,3.297290,2.926081,3.211355
3.288315,3.297341,2.926081,3.210549
3.288239,3.297165,2.922051,3.210549
3.288224,3.297180,2.922051,3.209743
3.288214,3.297195,2.925275,3.207326
3.288254,3.297175,2.922857,3.215385
3.288103,3.297069,2.920439,3.204103
3.288149,3.297139,2.922051,3.204908
3.288073,3.297129,2.914798,3.208132
3.288128,3.297170,2.923663,3.209743
3.287897,3.297119,2.912381,3.206520
3.288028,3.297185,2.913993,3.209743
3.287982,3.297175,2.915604,3.207326
3.287902,3.297059,2.910769,3.206520
3.287756,3.297069,2.910769,3.205714
3.287851,3.297119,2.912381,3.202491
3.287826,3.297205,2.910769,3.209743
3.287736,3.296998,2.910769,3.204103
3.287731,3.297064,2.905934,3.196850
3.287766,3.297059,2.909963,3.198462
3.287751,3.297069,2.913993,3.209743
3.287574,3.296812,2.904322,3.199267
3.287685,3.297023,2.905128,3.205714
3.287615,3.296948,2.907546,3.205714
3.287695,3.296847,2.908352,3.204908
3.287524,3.296882,2.900293,3.199267
3.287584,3.296938,2.904322,3.204908
3.287519,3.296983,2.900293,3.201685
3.287519,3.296847,2.901905,3.197656
3.287459,3.296862,2.898681,3.198462
3.287484,3.296832,2.895458,3.192015
3.287504,3.296963,2.898681,3.198462
3.287393,3.296928,2.898681,3.200879
3.287403,3.296852,2.892234,3.198462
3.287393,3.296852,2.895458,3.199267
3.287454,3.296983,2.900293,3.205714
3.287353,3.296812,2.897070,3.196044
3.287413,3.296862,2.895458,3.196044
3.287302,3.296862,2.895458,3.196850
3.287449,3.296898,2.900293,3.202491
3.287141,3.296772,2.893040,3.195238
3.287418,3.296822,2.894652,3.196850
3.287302,3.296857,2.894652,3.200073
3.287192,3.296777,2.893040,3.193626
3.287126,3.296762,2.884982,3.194432
3.287272,3.296807,2.888205,3.196044
3.287267,3.296898,2.892234,3.202491
3.287192,3.296731,2.883370,3.196044
3.287197,3.296812,2.889011,3.200073
3.287192,3.296827,2.889817,3.196044
3.287373,3.296867,2.892234,3.205714
3.287076,3.296716,2.888205,3.187180
3.287257,3.296807,2.882564,3.198462
3.287212,3.296797,2.889817,3.196044
3.287141,3.296787,2.890623,3.196850
3.287000,3.296676,2.878535,3.192015
3.287015,3.296782,2.876923,3.194432
3.287036,3.296772,2.884982,3.193626
3.287146,3.296721,2.888205,3.193626
3.286879,3.296721,2.875311,3.191209
3.287030,3.296741,2.879341,3.192015
3.286965,3.296908,2.882564,3.196850
3.286985,3.296757,2.891428,3.196044
3.286900,3.296741,2.882564,3.193626
3.286990,3.296746,2.882564,3.196850
3.287247,3.296752,2.884176,3.199267
3.286804,3.296721,2.879341,3.188791
3.287046,3.296822,2.876923,3.195238
3.287086,3.296792,2.889817,3.196850
3.287287,3.296817,2.898681,3.193626
3.287136,3.296701,2.883370,3.192821
3.287363,3.296872,2.895458,3.196044
3.287499,3.296973,2.896264,3.205714
3.287690,3.297023,2.909963,3.208132
3.287605,3.297018,2.904322,3.204908
3.287987,3.297195,2.911575,3.209743
3.288164,3.297426,2.922051,3.212967
3.288370,3.297351,2.931722,3.211355
3.288436,3.297431,2.926081,3.219414
3.288662,3.297502,2.934945,3.218608
3.288899,3.297698,2.942198,3.221026
3.288954,3.297557,2.943004,3.222637
3.289085,3.297708,2.951062,3.226667
3.289166,3.297754,2.953480,3.233919
3.289378,3.297834,2.959121,3.229890
3.289262,3.297668,2.952674,3.225055
3.289408,3.297824,2.960733,3.231502
3.289458,3.297860,2.956703,3.233114
3.289539,3.297829,2.963150,3.226667
3.289347,3.297749,2.962344,3.227473
3.289574,3.297895,2.964762,3.230696
3.289534,3.297955,2.964762,3.233114
3.289488,3.297814,2.966374,3.231502
3.289458,3.297829,2.960733,3.229890
3.289534,3.297814,2.964762,3.231502
3.289514,3.297935,2.965568,3.227473
3.289468,3.297663,2.963956,3.224249
3.289433,3.297824,2.961539,3.230696
3.289468,3.297789,2.967180,3.230696
3.289488,3.297890,2.958315,3.233919
3.289307,3.297648,2.960733,3.228278
3.289367,3.297829,2.959121,3.227473
3.289292,3.297764,2.957509,3.226667
3.289403,3.297729,2.962344,3.227473
3.289121,3.297593,2.950256,3.221026
3.289277,3.297658,2.955897,3.224249
3.289196,3.297683,2.954286,3.226667
3.289111,3.297608,2.963956,3.223443
3.289045,3.297583,2.951062,3.221026
3.289121,3.297567,2.954286,3.221026
3.289116,3.297708,2.951062,3.231502
3.289065,3.297724,2.950256,3.219414
3.288965,3.297638,2.949450,3.223443
3.288975,3.297608,2.951868,3.225055
3.289045,3.297567,2.951868,3.223443
3.288869,3.297351,2.948645,3.213773
3.288954,3.297537,2.943004,3.222637
3.288849,3.297567,2.940586,3.217802
3.288959,3.297436,2.943810,3.230696
3.288662,3.297316,2.938974,3.213773
3.288743,3.297346,2.942198,3.218608
3.288682,3.297507,2.938169,3.216996
3.288688,3.297321,2.938974,3.211355
3.288491,3.297285,2.930916,3.209743
3.288511,3.297255,2.937363,3.209743
3.288526,3.297356,2.929304,3.218608
3.288380,3.297255,2.926887,3.209743
3.288340,3.297321,2.926081,3.213773
3.288375,3.297190,2.930110,3.209743
3.288385,3.297295,2.926887,3.218608
3.288300,3.297149,2.926081,3.208132
3.288350,3.297240,2.926081,3.212161
3.288280,3.297265,2.927692,3.209743
3.288340,3.297336,2.926081,3.209743
3.288164,3.297159,2.918828,3.207326
3.288300,3.297245,2.927692,3.209743
3.288285,3.297250,2.926081,3.209743
3.288325,3.297144,2.926081,3.208132
3.288209,3.297165,2.917216,3.209743
3.288330,3.297220,2.927692,3.209743
3.288295,3.297336,2.926081,3.212161
3.288269,3.297119,2.926887,3.209743
3.288310,3.297270,2.926081,3.213773
3.288320,3.297225,2.928498,3.213773
3.288481,3.297361,2.927692,3.213773
3.288305,3.297190,2.926081,3.209743
3.288441,3.297290,2.926081,3.211355
3.288436,3.297260,2.933333,3.214579
3.288446,3.297401,2.930916,3.213773
3.288365,3.297200,2.928498,3.203297
3.288491,3.297255,2.933333,3.216996
3.288501,3.297316,2.933333,3.212967
3.288582,3.297195,2.930110,3.211355
3.288370,3.297255,2.926081,3.209743
3.288350,3.297301,2.932528,3.211355
3.288446,3.297386,2.934139,3.214579
3.288370,3.297301,2.933333,3.209743
3.288370,3.297290,2.928498,3.211355
3.288466,3.297270,2.930916,3.209743
3.288481,3.297326,2.930916,3.215385
3.288375,3.297245,2.926887,3.209743
3.288380,3.297245,2.926081,3.211355
3.288390,3.297270,2.930110,3.212161
3.288531,3.297270,2.936557,3.211355
3.288365,3.297200,2.927692,3.209743
3.288375,3.297215,2.930110,3.209743
3.288315,3.297280,2.926081,3.209743
3.288370,3.297255,2.934139,3.211355
3.288154,3.297170,2.920439,3.204103
3.288264,3.297215,2.924469,3.211355
3.288269,3.297230,2.924469,3.208938
3.288189,3.297154,2.922051,3.208938
3.288113,3.297180,2.919634,3.209743
3.288229,3.297175,2.918022,3.209743
3.288144,3.297225,2.917216,3.212161
3.288043,3.297134,2.913187,3.204103
3.288003,3.297175,2.913993,3.209743
3.288053,3.297159,2.917216,3.205714
3.288199,3.297245,2.917216,3.205714
3.287932,3.296938,2.914798,3.202491
3.287942,3.297094,2.917216,3.207326
3.287937,3.297054,2.913187,3.205714
3.288003,3.297089,2.915604,3.204908
3.287751,3.296978,2.911575,3.209743
3.287801,3.297059,2.904322,3.202491
3.287806,3.297109,2.910769,3.204908
3.287796,3.297023,2.917216,3.202491
3.287680,3.296903,2.902711,3.198462
3.287736,3.297039,2.904322,3.202491
3.287680,3.297059,2.905128,3.205714
3.287625,3.297049,2.904322,3.200879
3.287559,3.297044,2.902711,3.205714
3.287600,3.296973,2.905128,3.207326
3.287660,3.297089,2.915604,3.205714
3.287509,3.296887,2.897876,3.196850
3.287559,3.297049,2.901905,3.196850
3.287554,3.297003,2.901099,3.199267
3.287615,3.297008,2.901099,3.204908
3.287469,3.296832,2.900293,3.196850
3.287504,3.296832,2.904322,3.200073
3.287494,3.296867,2.903517,3.196850
3.287539,3.296877,2.901905,3.198462
3.287408,3.296807,2.893040,3.196850
3.287489,3.296837,2.895458,3.199267
3.287484,3.297074,2.897876,3.204908
3.287383,3.296767,2.894652,3.196850
3.287408,3.296898,2.896264,3.199267
3.287464,3.296827,2.897876,3.199267
3.287454,3.296857,2.899487,3.200879
3.287368,3.296746,2.889817,3.196044
3.287433,3.296903,2.892234,3.196850
3.287373,3.296807,2.893040,3.196850
3.287459,3.296887,2.897876,3.196044
3.287131,3.296726,2.891428,3.192821
3.287333,3.296827,2.893846,3.196850
3.287307,3.296812,2.891428,3.196850
3.287363,3.296822,2.895458,3.194432
3.287046,3.296757,2.889011,3.196850
3.287212,3.296802,2.896264,3.199267
3.287272,3.296852,2.891428,3.196850
3.287136,3.296767,2.883370,3.194432
3.287116,3.296802,2.889011,3.195238
3.287222,3.296867,2.891428,3.196044
3.287348,3.296867,2.892234,3.196850
3.287066,3.296671,2.880952,3.199267
3.287081,3.296767,2.889817,3.194432
3.287197,3.296772,2.883370,3.196044
3.287313,3.296807,2.892234,3.196044
3.287010,3.296691,2.882564,3.200879
3.287030,3.296736,2.882564,3.195238
3.287046,3.296787,2.889011,3.196850
3.287197,3.296731,2.893040,3.194432
3.286859,3.296691,2.879341,3.192821
3.287086,3.296757,2.891428,3.194432
3.287202,3.296898,2.889011,3.194432
3.286960,3.296757,2.874506,3.196044
3.287041,3.296762,2.883370,3.196044
3.287292,3.296822,2.895458,3.198462
3.287403,3.297003,2.895458,3.200879
3.287454,3.296847,2.897876,3.195238
3.287519,3.297094,2.900293,3.200879
3.287660,3.297074,2.906740,3.208938
3.287977,3.297190,2.912381,3.208938
3.288033,3.297119,2.913187,3.207326
3.288300,3.297366,2.924469,3.209743
3.288375,3.297381,2.927692,3.219414
3.288713,3.297346,2.938169,3.216996
3.288647,3.297507,2.938169,3.215385
3.288869,3.297578,2.942198,3.221832
3.289070,3.297663,2.951868,3.222637
3.289131,3.297603,2.951868,3.223443
3.289111,3.297693,2.951062,3.223443
3.289267,3.297764,2.954286,3.230696
3.289317,3.297880,2.961539,3.234725
3.289307,3.297814,2.959927,3.223443
3.289372,3.297885,2.959121,3.225861
3.289443,3.297855,2.960733,3.228278
3.289554,3.297905,2.965568,3.229890
3.289413,3.297678,2.963150,3.226667
3.289483,3.297855,2.963150,3.233114
3.289483,3.297890,2.964762,3.225055
3.289655,3.297829,2.962344,3.228278
3.289282,3.297698,2.956703,3.223443
3.289393,3.297799,2.962344,3.233919
3.289438,3.297814,2.962344,3.229890
3.289443,3.297668,2.959927,3.224249
3.289176,3.297688,2.952674,3.225055
3.289327,3.297719,2.955897,3.227473
3.289277,3.297824,2.958315,3.221026
3.289231,3.297593,2.955897,3.222637
3.289141,3.297678,2.954286,3.224249
3.289131,3.297613,2.953480,3.212161
3.289242,3.297774,2.955897,3.227473
3.289070,3.297452,2.951868,3.216996
3.289116,3.297567,2.950256,3.221832
3.289070,3.297567,2.947839,3.221832
3.289095,3.297532,2.949450,3.220220
3.288944,3.297507,2.946227,3.215385
3.289045,3.297462,2.948645,3.220220
3.288939,3.297502,2.946227,3.220220
3.288975,3.297275,2.943810,3.218608
3.288667,3.297421,2.938169,3.212967
3.288793,3.297406,2.943810,3.217802
3.288738,3.297457,2.941392,3.219414
3.288708,3.297300,2.938169,3.216996
3.288652,3.297366,2.936557,3.220220
3.288677,3.297361,2.934945,3.212161
3.288698,3.297472,2.936557,3.214579
3.288511,3.297185,2.930916,3.210549
3.288572,3.297336,2.930916,3.209743
3.288461,3.297270,2.928498,3.211355
3.288506,3.297255,2.933333,3.201685
3.288259,3.297059,2.926081,3.208132
3.288340,3.297225,2.926887,3.209743
3.288285,3.297185,2.922857,3.209743
3.288295,3.297139,2.925275,3.205714
3.288159,3.297129,2.915604,3.204908
3.288264,3.297185,2.926081,3.207326
3.288209,3.297235,2.925275,3.208938
3.288128,3.297154,2.922857,3.208938
3.288164,3.297154,2.915604,3.207326
3.288224,3.297165,2.920439,3.209743
3.288295,3.297205,2.921245,3.211355
3.288154,3.297099,2.921245,3.202491
3.288159,3.297180,2.918022,3.208132
3.288194,3.297185,2.921245,3.209743
3.288290,3.297114,2.926081,3.210549
3.288118,3.297084,2.922857,3.205714
3.288295,3.297230,2.924469,3.201685
3.288264,3.297195,2.925275,3.209743
3.288355,3.297180,2.926887,3.209743
3.288204,3.297170,2.922857,3.209743
3.288340,3.297215,2.926081,3.211355
3.288345,3.297255,2.926887,3.212161
3.288254,3.297295,2.926081,3.209743
3.288320,3.297260,2.923663,3.209743
3.288360,3.297230,2.927692,3.213773
3.288471,3.297351,2.930110,3.216996
3.288330,3.297200,2.917216,3.209743
3.288390,3.297280,2.928498,3.209743
3.288410,3.297295,2.926887,3.209743
3.288617,3.297351,2.930916,3.219414
3.288360,3.297180,2.929304,3.209743
3.288471,3.297316,2.934945,3.220220
3.288461,3.297260,2.931722,3.211355
3.288471,3.297230,2.930110,3.210549
3.288315,3.297205,2.926081,3.212967
3.288421,3.297225,2.929304,3.209743
3.288405,3.297280,2.926081,3.216191
3.288320,3.297185,2.927692,3.210549
3.288264,3.297230,2.926081,3.209743
3.288360,3.297260,2.930110,3.209743
3.288310,3.297326,2.926081,3.211355
3.288269,3.297144,2.922051,3.207326
3.288264,3.297205,2.923663,3.208132
3.288209,3.297180,2.922857,3.210549
3.288320,3.297280,2.928498,3.210549
3.288118,3.297099,2.918828,3.201685
3.288254,3.297175,2.925275,3.202491
3.288189,3.297185,2.920439,3.211355
3.288154,3.297144,2.926081,3.208938
3.287947,3.297124,2.913993,3.203297
3.288073,3.297134,2.918828,3.205714
3.288018,3.297149,2.917216,3.205714
3.288008,3.297104,2.915604,3.208938
3.287826,3.297069,2.911575,3.207326
3.287932,3.297109,2.913187,3.207326
3.287967,3.297109,2.914798,3.204103
3.287841,3.297003,2.909158,3.201685
3.287816,3.297124,2.913187,3.206520
3.287841,3.297044,2.911575,3.208938
3.287877,3.297109,2.913993,3.205714
3.287811,3.296918,2.905934,3.200073
3.287781,3.296953,2.910769,3.204103
3.287741,3.297039,2.905934,3.204103
3.287836,3.297094,2.907546,3.207326
3.287534,3.296877,2.903517,3.197656
3.287771,3.296918,2.910769,3.206520
3.287700,3.296983,2.904322,3.202491
3.287826,3.296943,2.909158,3.199267
3.287514,3.296928,2.900293,3.196850
3.287534,3.296948,2.904322,3.200879
3.287590,3.297109,2.901099,3.208938
3.287544,3.296908,2.899487,3.197656
3.287519,3.296988,2.900293,3.203297
3.287539,3.296893,2.900293,3.198462
3.287519,3.296978,2.900293,3.199267
3.287428,3.296746,2.897876,3.196044
3.287484,3.296847,2.896264,3.196850
3.287484,3.296857,2.895458,3.196850
3.287549,3.296893,2.900293,3.198462
3.287323,3.296782,2.900293,3.194432
3.287438,3.296822,2.898681,3.196044
3.287469,3.296822,2.900293,3.196850
3.287459,3.296797,2.900293,3.194432
3.287277,3.296772,2.892234,3.196850
3.287433,3.296923,2.895458,3.196850
3.287418,3.296882,2.897876,3.198462
3.287277,3.296772,2.893040,3.197656
3.287302,3.296817,2.889817,3.194432
3.287403,3.296817,2.897070,3.199267
3.287378,3.297003,2.894652,3.200073
3.287272,3.296752,2.880147,3.192821
3.287282,3.296807,2.889817,3.196044
3.287257,3.296832,2.889011,3.196850
3.287393,3.296822,2.899487,3.196850
3.287106,3.296631,2.884176,3.192821
3.287257,3.296767,2.892234,3.196044
3.287217,3.296711,2.892234,3.196044
3.287328,3.296817,2.892234,3.200073
3.286945,3.296711,2.888205,3.192821
3.287197,3.296746,2.891428,3.196850
3.287151,3.296827,2.889011,3.195238
3.287051,3.296767,2.893040,3.192821
3.287041,3.296726,2.882564,3.195238
3.287182,3.296767,2.889817,3.196044
3.287217,3.296862,2.892234,3.196850
3.287111,3.296691,2.888205,3.191209
3.287307,3.296802,2.889817,3.196044
3.287403,3.296872,2.895458,3.196850
3.287529,3.296837,2.897876,3.196850
3.287509,3.296762,2.900293,3.196850
3.287655,3.296998,2.903517,3.202491
3.287731,3.297044,2.907546,3.204908
3.288053,3.297180,2.920439,3.212967
3.288043,3.297165,2.918022,3.208132
3.288320,3.297250,2.926081,3.213773
3.288526,3.297426,2.934945,3.214579
3.288627,3.297306,2.938974,3.214579
3.288728,3.297547,2.938974,3.218608
3.288995,3.297567,2.947839,3.222637
3.289101,3.297724,2.951062,3.227473
3.289166,3.297532,2.953480,3.221832
3.289221,3.297789,2.954286,3.231502
3.289332,3.297789,2.956703,3.219414
3.289488,3.297829,2.975238,3.227473
3.289282,3.297583,2.963956,3.226667
3.289458,3.297769,2.963956,3.225861
3.289478,3.297779,2.964762,3.225861
3.289569,3.297688,2.968791,3.227473
3.289352,3.297623,2.956703,3.222637
3.289514,3.297764,2.963150,3.224249
3.289483,3.297774,2.964762,3.225055
3.289488,3.297739,2.971209,3.225055
3.289257,3.297719,2.960733,3.225055
3.289443,3.297668,2.963150,3.223443
3.289398,3.297819,2.962344,3.237949
3.289347,3.297633,2.959121,3.225861
3.289302,3.297693,2.955897,3.225055
3.289216,3.297628,2.959121,3.222637
3.289362,3.297714,2.964762,3.226667
3.289166,3.297457,2.951868,3.220220
3.289166,3.297628,2.953480,3.221832
3.289121,3.297588,2.951062,3.223443
3.289206,3.297492,2.951868,3.221026
3.289005,3.297482,2.951062,3.216996
3.289080,3.297507,2.951868,3.225055
3.289050,3.297487,2.951868,3.219414
3.288914,3.297452,2.951062,3.221026
3.288859,3.297416,2.943004,3.214579
3.288934,3.297462,2.946227,3.219414
3.288849,3.297552,2.941392,3.222637
3.288839,3.297406,2.942198,3.214579
3.288733,3.297507,2.939780,3.217802
3.288808,3.297416,2.941392,3.209743
3.288939,3.297457,2.942198,3.220220
3.288662,3.297245,2.938169,3.208938
3.288713,3.297336,2.937363,3.218608
3.288652,3.297316,2.934139,3.210549
3.288662,3.297331,2.936557,3.212161
3.288421,3.297180,2.929304,3.208938
3.288506,3.297301,2.936557,3.211355
3.288441,3.297215,2.930110,3.210549
3.288410,3.297180,2.926887,3.208938
3.288280,3.297139,2.922857,3.203297
3.288274,3.297180,2.926081,3.210549
3.288285,3.297175,2.925275,3.210549
3.288244,3.297149,2.925275,3.208938
3.288184,3.297215,2.917216,3.207326
3.288199,3.297114,2.922051,3.207326
3.288259,3.297270,2.923663,3.209743
3.288113,3.297049,2.918828,3.204103
3.288184,3.297104,2.918828,3.209743
3.288269,3.297124,2.920439,3.208132
3.288259,3.297134,2.926081,3.205714
3.288038,3.297018,2.917216,3.202491
3.288199,3.297265,2.923663,3.209743
3.288194,3.297134,2.923663,3.207326
3.288244,3.297129,2.926081,3.206520
3.288123,3.297124,2.917216,3.208132
3.288264,3.297175,2.925275,3.209743
3.288295,3.297255,2.934139,3.209743
3.288264,3.297079,2.926081,3.209743
3.288204,3.297280,2.926081,3.210549
3.288340,3.297245,2.927692,3.209743
3.288400,3.297285,2.927692,3.213773
3.288345,3.297170,2.928498,3.208132
3.288355,3.297230,2.927692,3.210549
3.288350,3.297260,2.934139,3.209743
3.288572,3.297421,2.935751,3.221832
3.288360,3.297170,2.930916,3.208938
3.288526,3.297245,2.934945,3.215385
3.288496,3.297205,2.930110,3.213773
3.288516,3.297170,2.931722,3.197656
3.288340,3.297165,2.928498,3.209743
3.288421,3.297235,2.928498,3.210549
3.288395,3.297290,2.933333,3.214579
3.288400,3.297220,2.925275,3.209743
3.288310,3.297220,2.926081,3.207326
3.288400,3.297235,2.928498,3.211355
3.288360,3.297255,2.926081,3.211355
3.288355,3.297094,2.926081,3.209743
3.288320,3.297205,2.926081,3.209743
3.288365,3.297185,2.926081,3.213773
3.288421,3.297275,2.925275,3.209743
3.288254,3.297175,2.926887,3.207326
3.288280,3.297185,2.926081,3.205714
3.288249,3.297185,2.925275,3.207326
3.288280,3.297069,2.926081,3.209743
3.288038,3.297018,2.918828,3.209743
3.288149,3.297154,2.923663,3.209743
3.288164,3.297170,2.921245,3.209743
3.288118,3.297089,2.922051,3.205714
3.287977,3.297074,2.915604,3.205714
3.288028,3.297084,2.912381,3.208132
3.288073,3.297049,2.918828,3.213773
3.287942,3.297054,2.913187,3.206520
3.287927,3.297094,2.917216,3.204103
3.287937,3.297074,2.919634,3.201685
3.288174,3.297139,2.927692,3.208938
3.287801,3.296998,2.913993,3.199267
3.287841,3.297064,2.913993,3.207326
3.287791,3.297099,2.913187,3.204908
3.287897,3.297003,2.918022,3.207326
3.287635,3.296852,2.909158,3.198462
3.287821,3.296963,2.908352,3.201685
3.287746,3.296998,2.909158,3.204908
3.287846,3.296973,2.910769,3.200879
3.287645,3.296923,2.902711,3.200879
3.287746,3.297008,2.907546,3.211355
3.287650,3.296983,2.907546,3.206520
3.287600,3.296933,2.902711,3.198462
3.287605,3.296978,2.902711,3.204908
3.287615,3.296893,2.901099,3.200879
3.287741,3.297013,2.909158,3.204103
3.287529,3.296852,2.900293,3.196850
3.287590,3.296867,2.900293,3.204103
3.287569,3.296862,2.907546,3.193626
3.287564,3.296973,2.905128,3.196850
3.287428,3.296837,2.900293,3.196044
3.287474,3.296837,2.897876,3.198462
3.287499,3.296877,2.898681,3.197656
3.287534,3.296792,2.901905,3.193626
3.287318,3.296792,2.894652,3.196850
3.287464,3.296832,2.901099,3.197656
3.287438,3.296938,2.898681,3.198462
3.287368,3.296802,2.898681,3.196850
3.287403,3.296832,2.897876,3.195238
3.287413,3.296782,2.898681,3.196850
3.287499,3.296923,2.894652,3.200073
3.287217,3.296721,2.894652,3.193626
3.287398,3.296762,2.892234,3.196850
3.287368,3.296787,2.894652,3.195238
3.287413,3.296893,2.898681,3.201685
3.287287,3.296666,2.888205,3.189597
3.287333,3.296772,2.893040,3.195238
3.287368,3.296772,2.892234,3.196850
3.287343,3.296711,2.896264,3.192821
3.287086,3.296746,2.889011,3.192015
3.287237,3.296812,2.892234,3.194432
3.287252,3.296812,2.892234,3.193626
3.287192,3.296752,2.881758,3.195238
3.287146,3.296752,2.889011,3.196850
3.287232,3.296772,2.892234,3.196850
3.287171,3.296847,2.892234,3.196850
3.287207,3.296721,2.891428,3.192821
3.287116,3.296772,2.883370,3.202491
3.287217,3.296721,2.889817,3.200879
3.287398,3.296817,2.890623,3.196850
3.287338,3.296741,2.894652,3.192821
3.287479,3.296847,2.898681,3.201685
3.287529,3.296913,2.900293,3.199267
3.287741,3.296933,2.910769,3.199267
3.287695,3.297034,2.905128,3.204908
3.288063,3.297195,2.915604,3.205714
3.288189,3.297275,2.922051,3.209743
3.288254,3.297200,2.926081,3.213773
3.288476,3.297321,2.928498,3.212161
3.288708,3.297452,2.938974,3.217802
3.288864,3.297648,2.941392,3.215385
3.288939,3.297522,2.947033,3.220220
3.289116,3.297663,2.951868,3.221832
3.289196,3.297673,2.955091,3.224249
3.289393,3.297794,2.972821,3.230696
3.289302,3.297618,2.955897,3.220220
3.289473,3.297900,2.960733,3.225055
3.289453,3.297779,2.963956,3.230696
3.289660,3.297734,2.966374,3.224249
3.289372,3.297719,2.964762,3.222637
3.289539,3.297809,2.964762,3.231502
3.289554,3.297829,2.963150,3.228278
3.289629,3.297608,2.970403,3.229890
3.289418,3.297764,2.960733,3.226667
3.289539,3.297744,2.965568,3.226667
3.289599,3.297960,2.962344,3.229890
3.289398,3.297688,2.961539,3.231502
3.289458,3.297779,2.963150,3.225861
3.289488,3.297754,2.959927,3.228278
3.289483,3.297769,2.964762,3.229890
3.289383,3.297532,2.955897,3.225861
3.289393,3.297729,2.964762,3.226667
3.289347,3.297714,2.959927,3.225055
3.289413,3.297653,2.963956,3.226667
3.289151,3.297532,2.952674,3.216996
3.289277,3.297588,2.952674,3.221832
3.289236,3.297623,2.952674,3.223443
3.289181,3.297512,2.947839,3.220220
3.289045,3.297517,2.947839,3.221026
3.289106,3.297547,2.951868,3.221832
3.289106,3.297648,2.951868,3.223443
3.289040,3.297497,2.946227,3.218608
3.288970,3.297512,2.943810,3.220220
3.289010,3.297588,2.949450,3.218608
3.289116,3.297562,2.948645,3.220220
3.288854,3.297326,2.946227,3.213773
3.288929,3.297462,2.943004,3.216996
3.288889,3.297411,2.947033,3.216996
3.288944,3.297401,2.946227,3.218608
3.288733,3.297270,2.938974,3.210549
3.288753,3.297336,2.938169,3.217802
3.288733,3.297346,2.938974,3.212967
3.288758,3.297220,2.942198,3.209743
3.288496,3.297230,2.928498,3.209743
3.288562,3.297321,2.938169,3.212161
3.288562,3.297351,2.930916,3.210549
3.288370,3.297245,2.930110,3.209743
3.288345,3.297230,2.927692,3.208938
3.288355,3.297205,2.926081,3.209743
3.288446,3.297295,2.926081,3.212967
3.288285,3.297018,2.924469,3.208132
3.288305,3.297165,2.926081,3.210549
3.288290,3.297235,2.923663,3.208938
3.288360,3.297154,2.926081,3.208132
3.288179,3.297109,2.921245,3.199267
3.288264,3.297170,2.925275,3.207326
3.288300,3.297165,2.924469,3.209743
3.288320,3.297139,2.926887,3.209743
3.288159,3.297134,2.926081,3.207326
3.288295,3.297175,2.921245,3.209743
3.288310,3.297290,2.926081,3.209743
3.288295,3.297165,2.926887,3.208938
3.288315,3.297280,2.926081,3.208132
3.288355,3.297195,2.929304,3.209743
3.288365,3.297255,2.926887,3.217802
3.288345,3.297159,2.930916,3.209743
3.288355,3.297195,2.927692,3.211355
3.288426,3.297220,2.926081,3.209743
3.288552,3.297200,2.938974,3.212161
3.288421,3.297170,2.927692,3.209743
3.288476,3.297275,2.926081,3.211355
3.288471,3.297225,2.928498,3.215385
3.288607,3.297270,2.938169,3.209743
3.288355,3.297235,2.922857,3.208938
3.288597,3.297260,2.930916,3.212967
3.288476,3.297311,2.931722,3.212161
3.288360,3.297215,2.930110,3.209743
3.288436,3.297220,2.926887,3.210549
3.288476,3.297280,2.931722,3.208132
3.288526,3.297442,2.934945,3.218608
3.288441,3.297205,2.927692,3.209743
3.288421,3.297260,2.928498,3.212161
3.288431,3.297285,2.930916,3.209743
3.288471,3.297285,2.930916,3.221026
3.288375,3.297119,2.927692,3.207326
3.288375,3.297195,2.930916,3.209743
3.288380,3.297200,2.927692,3.208132
3.288405,3.297230,2.926081,3.209743
3.288224,3.297149,2.924469,3.202491
3.288280,3.297175,2.927692,3.207326
3.288259,3.297185,2.923663,3.210549
3.288199,3.297144,2.926887,3.204908
3.288093,3.297109,2.922051,3.207326
3.288144,3.297159,2.925275,3.208938
3.288204,3.297295,2.920439,3.217802
3.288088,3.297074,2.913993,3.202491
3.288008,3.297129,2.912381,3.208938
3.288028,3.297114,2.913187,3.211355
3.288139,3.297119,2.926081,3.210549
3.287937,3.296948,2.907546,3.200879
3.287922,3.297008,2.917216,3.204103
3.287897,3.297013,2.912381,3.204908
3.287932,3.297003,2.915604,3.201685
3.287821,3.296938,2.908352,3.199267
3.287846,3.297054,2.911575,3.202491
3.287801,3.297039,2.908352,3.204103
3.287781,3.296913,2.901905,3.201685
3.287615,3.296877,2.903517,3.201685
3.287756,3.296938,2.904322,3.202491
3.287680,3.297089,2.907546,3.209743
3.287610,3.296842,2.903517,3.196850
3.287635,3.296948,2.902711,3.207326
3.287685,3.296958,2.903517,3.204103
3.287630,3.297089,2.904322,3.204908
3.287519,3.296772,2.900293,3.196044
3.287630,3.296938,2.900293,3.199267
3.287534,3.296882,2.900293,3.199267
3.287554,3.296983,2.904322,3.202491
3.287474,3.296762,2.898681,3.196044
3.287504,3.296898,2.900293,3.196850
3.287529,3.296857,2.900293,3.200879
3.287549,3.296812,2.900293,3.196850
3.287328,3.296716,2.895458,3.196850
3.287423,3.296837,2.900293,3.198462
3.287499,3.297023,2.900293,3.199267
3.287443,3.296842,2.900293,3.196850
3.287363,3.296898,2.897876,3.196850
3.287383,3.296777,2.900293,3.196850
3.287474,3.296867,2.898681,3.201685
3.287378,3.296731,2.894652,3.196850
3.287348,3.296762,2.894652,3.196850
3.287338,3.296802,2.899487,3.198462
3.287413,3.296842,2.897070,3.196850
3.287151,3.296656,2.885787,3.187985
3.287343,3.296787,2.896264,3.196044
3.287257,3.296767,2.896264,3.199267
3.287207,3.296641,2.888205,3.192821
3.287025,3.296757,2.883370,3.182344
3.287207,3.296752,2.889817,3.196044
3.287252,3.296782,2.891428,3.196850
3.287030,3.296711,2.888205,3.192015
3.287020,3.296706,2.882564,3.192821
3.287197,3.296757,2.889011,3.196850
3.287192,3.296802,2.882564,3.196850
3.286980,3.296545,2.891428,3.190403
3.287141,3.296716,2.884982,3.194432
3.287101,3.296731,2.890623,3.196850
3.287257,3.296888,2.897876,3.192015
3.286889,3.296575,2.883370,3.196044
3.287111,3.296746,2.891428,3.196044
3.287146,3.296797,2.888205,3.196044
3.287232,3.296711,2.892234,3.193626
3.287020,3.296721,2.888205,3.191209
3.287413,3.296827,2.897876,3.196850
3.287489,3.296862,2.899487,3.199267
3.287408,3.296812,2.902711,3.202491
3.287559,3.297049,2.902711,3.202491
3.287811,3.297114,2.915604,3.209743
3.288123,3.297240,2.917216,3.202491
3.288249,3.297210,2.926081,3.209743
3.288400,3.297346,2.926887,3.215385
3.288597,3.297447,2.936557,3.214579
3.288859,3.297502,2.949450,3.221832
3.288793,3.297386,2.947839,3.221832
3.289040,3.297567,2.950256,3.217802
3.289116,3.297618,2.951062,3.225055
3.289277,3.297663,2.955897,3.227473
3.289141,3.297658,2.957509,3.220220
3.289408,3.297799,2.964762,3.235531
3.289438,3.297804,2.959121,3.227473
3.289614,3.297724,2.967180,3.226667
3.289423,3.297693,2.960733,3.226667
3.289534,3.297809,2.970403,3.230696
3.289579,3.297915,2.966374,3.233114
3.289498,3.297703,2.963150,3.228278
3.289508,3.297789,2.964762,3.226667
3.289544,3.297819,2.966374,3.232308
3.289639,3.297915,2.970403,3.232308
3.289478,3.297724,2.960733,3.221832
3.289549,3.297814,2.966374,3.228278
3.289468,3.297749,2.960733,3.229084
3.289574,3.297703,2.966374,3.231502
3.289242,3.297658,2.954286,3.222637
3.289378,3.297643,2.957509,3.227473
3.289317,3.297643,2.959121,3.225055
3.289191,3.297678,2.955897,3.218608
3.289136,3.297598,2.951868,3.216191
3.289201,3.297668,2.951868,3.223443
3.289176,3.297804,2.955091,3.226667
3.289116,3.297497,2.951868,3.219414
3.289111,3.297542,2.951868,3.222637
3.289191,3.297628,2.952674,3.222637
3.289181,3.297598,2.951868,3.221832
3.289055,3.297371,2.951868,3.213773
3.289055,3.297542,2.947839,3.223443
3.288990,3.297502,2.951062,3.218608
3.289045,3.297663,2.951868,3.216996
3.288834,3.297356,2.947839,3.211355
3.288944,3.297442,2.947033,3.220220
3.288874,3.297477,2.944615,3.216996
3.288869,3.297411,2.943004,3.221832
3.288728,3.297356,2.935751,3.212967
3.288798,3.297391,2.945421,3.214579
3.288728,3.297532,2.939780,3.218608
3.288607,3.297265,2.939780,3.214579
3.288612,3.297361,2.933333,3.213773
3.288652,3.297275,2.935751,3.212967
3.288627,3.297336,2.936557,3.219414
3.288461,3.297119,2.930110,3.208938
3.288481,3.297210,2.930916,3.210549
3.288410,3.297240,2.931722,3.210549
3.288451,3.297285,2.930916,3.210549
3.288300,3.297104,2.926081,3.207326
3.288315,3.297190,2.929304,3.209743
3.288300,3.297180,2.922051,3.209743
3.288405,3.297154,2.930916,3.208938
3.288154,3.297124,2.915604,3.205714
3.288249,3.297180,2.924469,3.212161
3.288280,3.297250,2.925275,3.212161
3.288068,3.297074,2.925275,3.208938
3.288219,3.297154,2.921245,3.205714
3.288290,3.297185,2.926081,3.210549
3.288335,3.297250,2.927692,3.210549
3.288199,3.297119,2.922857,3.207326
3.288285,3.297195,2.925275,3.208938
3.288305,3.297200,2.924469,3.209743
3.288365,3.297265,2.930916,3.211355
3.288305,3.297094,2.915604,3.207326
3.288360,3.297205,2.926887,3.209743
3.288405,3.297210,2.926887,3.215385
3.288486,3.297195,2.930110,3.208132
3.288320,3.297225,2.926081,3.209743
3.288421,3.297346,2.930916,3.211355
3.288486,3.297285,2.926081,3.210549
3.288355,3.297159,2.927692,3.208132
3.288365,3.297245,2.927692,3.209743
3.288360,3.297295,2.929304,3.210549
3.288486,3.297406,2.930110,3.216996
3.288395,3.297129,2.928498,3.208938
3.288390,3.297321,2.926887,3.209743
3.288466,3.297185,2.926887,3.211355
3.288476,3.297230,2.947839,3.213773
3.288350,3.297114,2.926887,3.209743
3.288390,3.297200,2.930110,3.207326
3.288340,3.297220,2.927692,3.214579
3.288431,3.297230,2.928498,3.208132
3.288295,3.297154,2.922857,3.208938
3.288365,3.297210,2.928498,3.209743
3.288320,3.297260,2.926081,3.209743
3.288274,3.297154,2.926081,3.208132
3.288174,3.297154,2.924469,3.209743
3.288234,3.297240,2.926887,3.210549
3.288214,3.297306,2.924469,3.205714
3.288169,3.297029,2.923663,3.209743
3.288128,3.297180,2.915604,3.204908
3.288189,3.297165,2.922051,3.208132
3.288184,3.297265,2.926887,3.209743
3.288003,3.296913,2.912381,3.201685
3.288138,3.297059,2.921245,3.207326
3.288018,3.297069,2.915604,3.205714
3.288063,3.297049,2.920439,3.207326
3.287816,3.297003,2.911575,3.200073
3.287937,3.297069,2.914798,3.204908
3.287872,3.297074,2.913993,3.202491
3.287932,3.296913,2.915604,3.202491
3.287736,3.296973,2.905128,3.199267
3.287831,3.297013,2.911575,3.204103
3.287791,3.297154,2.911575,3.204908
3.287741,3.296898,2.905128,3.198462
3.287645,3.297003,2.904322,3.205714
3.287670,3.296968,2.905934,3.204103
3.287756,3.297008,2.907546,3.203297
3.287569,3.296837,2.902711,3.194432
3.287665,3.296968,2.900293,3.198462
3.287529,3.296953,2.901905,3.199267
3.287584,3.296867,2.899487,3.200879
3.287504,3.296746,2.901099,3.196850
3.287509,3.296857,2.900293,3.198462
3.287534,3.296923,2.900293,3.197656
3.287630,3.296807,2.901099,3.196850
3.287423,3.296787,2.898681,3.196850
3.287418,3.296862,2.900293,3.196850
3.287499,3.297008,2.900293,3.200879
3.287383,3.296782,2.893040,3.196850
3.287373,3.296872,2.892234,3.196044
3.287459,3.296852,2.898681,3.197656
3.287448,3.296872,2.900293,3.197656
3.287408,3.296726,2.894652,3.196044
3.287373,3.296716,2.895458,3.194432
3.287393,3.296807,2.896264,3.192821
3.287423,3.296812,2.897876,3.196850
3.287242,3.296681,2.880952,3.192015
3.287328,3.296726,2.893040,3.196850
3.287302,3.296792,2.897876,3.196850
3.287302,3.296721,2.896264,3.200879
3.287121,3.296757,2.890623,3.197656
3.287262,3.296787,2.893040,3.196850
3.287202,3.296918,2.890623,3.196850
3.287086,3.296731,2.889011,3.191209
3.287217,3.296736,2.889817,3.191209
3.287247,3.296777,2.889011,3.196044
3.287358,3.296852,2.891428,3.196850
3.287202,3.296696,2.884176,3.196850
3.287217,3.296782,2.888205,3.196850
3.287061,3.296701,2.880147,3.192015
3.287272,3.296782,2.889817,3.200879
3.287000,3.296631,2.880147,3.192821
3.287146,3.296797,2.890623,3.194432
3.287071,3.296686,2.882564,3.196044
3.287151,3.296696,2.888205,3.196850
3.286814,3.296666,2.882564,3.192015
3.286950,3.296716,2.880147,3.196850
3.286864,3.296736,2.883370,3.196044
3.286905,3.296671,2.881758,3.187985
3.286889,3.296711,2.877729,3.192821
3.287061,3.296686,2.880147,3.195238
3.287071,3.296822,2.891428,3.200073
3.287116,3.296696,2.883370,3.196044
3.287197,3.296807,2.890623,3.196850
3.287267,3.296852,2.895458,3.196850
3.287554,3.296903,2.894652,3.201685
3.287534,3.296797,2.904322,3.196850
3.287856,3.297099,2.912381,3.208132
3.288043,3.297180,2.913187,3.208938
3.288214,3.297295,2.926887,3.209743
3.288295,3.297230,2.922857,3.209743
3.288541,3.297361,2.933333,3.217802
3.288687,3.297532,2.936557,3.216996
3.288778,3.297557,2.939780,3.217802
3.288929,3.297588,2.944615,3.218608
3.289126,3.297678,2.951868,3.226667
3.289186,3.297809,2.956703,3.244395
3.289267,3.297623,2.955897,3.224249
3.289277,3.297698,2.954286,3.225861
3.289423,3.297799,2.962344,3.224249
3.289594,3.297729,2.963956,3.223443
3.289398,3.297714,2.963956,3.221026
3.289549,3.297779,2.964762,3.231502
3.289458,3.297804,2.964762,3.227473
3.289639,3.297719,2.964762,3.225861
3.289378,3.297648,2.961539,3.226667
3.289594,3.297829,2.969597,3.224249
3.289508,3.297834,2.962344,3.228278
3.289473,3.297749,2.962344,3.225861
3.289383,3.297739,2.959121,3.227473
3.289398,3.297774,2.964762,3.227473
3.289443,3.297885,2.959121,3.230696
3.289282,3.297658,2.955897,3.224249
3.289247,3.297714,2.953480,3.225861
3.289317,3.297663,2.959121,3.213773
3.289503,3.297708,2.959927,3.228278
3.289206,3.297527,2.954286,3.220220
3.289292,3.297653,2.954286,3.223443
3.289231,3.297708,2.955091,3.222637
3.289262,3.297719,2.955897,3.219414
3.289080,3.297522,2.955897,3.219414
3.289131,3.297608,2.951868,3.226667
3.289126,3.297547,2.954286,3.221026
3.289090,3.297452,2.951868,3.212161
3.288959,3.297477,2.943810,3.214579
3.289045,3.297507,2.947839,3.221026
3.288975,3.297613,2.951062,3.222637
3.288924,3.297447,2.943004,3.212161
3.288864,3.297532,2.941392,3.217802
3.288904,3.297487,2.947839,3.215385
3.288899,3.297522,2.943004,3.221026
3.288733,3.297265,2.940586,3.212967
3.288748,3.297411,2.942198,3.212967
3.288718,3.297416,2.938974,3.207326
3.288748,3.297290,2.938974,3.214579
3.288587,3.297215,2.938169,3.209743
3.288662,3.297250,2.936557,3.220220
3.288592,3.297311,2.933333,3.208132
3.288531,3.297215,2.934139,3.212161
3.288335,3.297195,2.926081,3.209743
3.288390,3.297225,2.928498,3.209743
3.288385,3.297406,2.928498,3.211355
3.288325,3.297144,2.924469,3.209743
3.288254,3.297195,2.925275,3.209743
3.288305,3.297185,2.925275,3.208938
3.288320,3.297205,2.926081,3.213773
3.288219,3.297190,2.924469,3.208938
3.288244,3.297185,2.922051,3.210549
3.288325,3.297170,2.926081,3.208132
3.288325,3.297215,2.924469,3.209743
3.288274,3.297089,2.925275,3.205714
3.288295,3.297255,2.926081,3.208132
3.288305,3.297180,2.925275,3.200879
3.288345,3.297240,2.926887,3.216996
3.288199,3.297129,2.922051,3.205714
3.288335,3.297185,2.926081,3.210549
3.288370,3.297275,2.926081,3.209743
3.288290,3.297149,2.928498,3.207326
3.288300,3.297230,2.926081,3.210549
3.288390,3.297225,2.930110,3.209743
3.288431,3.297316,2.928498,3.215385
3.288350,3.297134,2.934139,3.208938
3.288416,3.297326,2.928498,3.212161
3.288436,3.297215,2.928498,3.209743
3.288572,3.297331,2.930110,3.213773
3.288410,3.297210,2.920439,3.208938
3.288501,3.297311,2.933333,3.210549
3.288501,3.297260,2.931722,3.213773
3.288562,3.297230,2.930916,3.197656
3.288269,3.297215,2.926081,3.209743
3.288441,3.297301,2.928498,3.210549
3.288416,3.297245,2.928498,3.210549
3.288582,3.297170,2.929304,3.210549
3.288340,3.297215,2.926887,3.209743
3.288410,3.297230,2.931722,3.209743
3.288421,3.297351,2.928498,3.209743
3.288325,3.297285,2.926081,3.210549
3.288320,3.297240,2.922857,3.210549
3.288340,3.297240,2.928498,3.197656
3.288400,3.297175,2.937363,3.209743
3.288249,3.297119,2.924469,3.204103
3.288264,3.297165,2.926887,3.207326
3.288269,3.297185,2.925275,3.204908
3.288259,3.297220,2.926081,3.197656
3.288113,3.297134,2.922051,3.204103
3.288189,3.297175,2.923663,3.205714
3.288133,3.297154,2.925275,3.208938
3.288189,3.297124,2.917216,3.207326
3.287982,3.297149,2.918022,3.205714
3.287997,3.297190,2.918828,3.208132
3.288038,3.297129,2.912381,3.205714
3.287917,3.297003,2.912381,3.204908
3.287882,3.297099,2.913993,3.204908
3.287917,3.297094,2.911575,3.208132
3.287957,3.297084,2.914798,3.204908
3.287816,3.296898,2.909158,3.198462
3.287907,3.297049,2.907546,3.203297
3.287816,3.297023,2.912381,3.205714
3.287841,3.297074,2.910769,3.204103
3.287584,3.296887,2.902711,3.196850
3.287821,3.296958,2.909963,3.201685
3.287746,3.296953,2.904322,3.205714
3.287675,3.296958,2.904322,3.200073
3.287529,3.296857,2.900293,3.200879
3.287690,3.296948,2.900293,3.197656
3.287610,3.296998,2.901905,3.205714
3.287554,3.296928,2.900293,3.198462
3.287499,3.296988,2.901099,3.200879
3.287514,3.296857,2.901099,3.200073
3.287549,3.296893,2.901099,3.200879
3.287454,3.296802,2.900293,3.196850
3.287484,3.296877,2.900293,3.196850
3.287484,3.296857,2.899487,3.199267
3.287479,3.296993,2.900293,3.206520
3.287312,3.296767,2.896264,3.195238
3.287393,3.296867,2.897876,3.198462
3.287448,3.296862,2.892234,3.196044
3.287388,3.296807,2.902711,3.196850
3.287252,3.296792,2.889817,3.196044
3.287454,3.296812,2.900293,3.207326
3.287383,3.296857,2.897070,3.199267
3.287343,3.296726,2.901905,3.196044
3.287272,3.296817,2.888205,3.196850
3.287358,3.296807,2.895458,3.196044
3.287398,3.296857,2.892234,3.199267
3.287287,3.296651,2.889011,3.194432
3.287262,3.296772,2.893040,3.194432
3.287247,3.296772,2.892234,3.194432
3.287428,3.296822,2.896264,3.186374
3.287161,3.296595,2.891428,3.192821
3.287237,3.296767,2.891428,3.192821
3.287202,3.296772,2.891428,3.194432
3.287302,3.296777,2.893040,3.194432
3.286915,3.296671,2.884982,3.194432
3.287101,3.296726,2.882564,3.196850
3.287222,3.296822,2.889011,3.196044
3.286995,3.296716,2.891428,3.188791
3.286985,3.296736,2.882564,3.191209
3.287121,3.296792,2.889011,3.192821
3.287217,3.296832,2.889817,3.196850
3.287041,3.296646,2.889011,3.192015
3.287010,3.296772,2.890623,3.196850
3.287071,3.296701,2.879341,3.194432
3.287116,3.296802,2.883370,3.196850
3.286975,3.296610,2.879341,3.188791
3.287166,3.296757,2.888205,3.188791
3.287046,3.296746,2.888205,3.196044
3.287202,3.296696,2.895458,3.193626
3.286935,3.296701,2.888205,3.192821
3.287408,3.296807,2.894652,3.198462
3.287423,3.296898,2.897876,3.198462
3.287549,3.296877,2.895458,3.196850
3.287579,3.296933,2.900293,3.196850
3.287791,3.297114,2.909158,3.205714
3.288018,3.297215,2.913993,3.208132
3.288214,3.297165,2.920439,3.209743
3.288310,3.297301,2.926081,3.216996
3.288526,3.297366,2.938974,3.215385
3.288763,3.297542,2.948645,3.218608
3.288793,3.297431,2.939780,3.213773
3.289080,3.297608,2.950256,3.221026
3.289126,3.297648,2.953480,3.225861
3.289242,3.297678,2.954286,3.225055
3.289151,3.297628,2.952674,3.223443
3.289322,3.297784,2.962344,3.226667
3.289403,3.297794,2.960733,3.225861
3.289513,3.297648,2.972821,3.224249
3.289372,3.297724,2.961539,3.225055
3.289488,3.297789,2.963956,3.227473
3.289513,3.297890,2.964762,3.235531
3.289519,3.297663,2.963150,3.229890
3.289448,3.297855,2.959927,3.227473
3.289559,3.297739,2.964762,3.228278
3.289619,3.297789,2.976850,3.227473
3.289357,3.297683,2.960733,3.222637
3.289513,3.297885,2.963150,3.224249
3.289448,3.297724,2.962344,3.225055
3.289539,3.297714,2.969597,3.232308
3.289242,3.297562,2.953480,3.221832
3.289398,3.297618,2.956703,3.231502
3.289196,3.297673,2.957509,3.226667
3.289287,3.297653,2.957509,3.222637
3.289141,3.297562,2.951868,3.221832
3.289226,3.297613,2.955091,3.223443
3.289181,3.297648,2.952674,3.224249
3.289136,3.297522,2.951868,3.217802
3.289100,3.297658,2.950256,3.221832
3.289106,3.297567,2.951868,3.219414
3.289186,3.297633,2.951868,3.224249
3.289015,3.297386,2.954286,3.217802
3.289070,3.297552,2.943810,3.220220
3.288995,3.297537,2.947033,3.217802
3.289040,3.297618,2.951062,3.224249
3.288834,3.297321,2.943810,3.211355
3.288914,3.297447,2.947839,3.217802
3.288844,3.297396,2.946227,3.215385
3.288834,3.297295,2.943004,3.215385
3.288572,3.297270,2.936557,3.211355
3.288753,3.297411,2.938974,3.213773
3.288652,3.297482,2.934945,3.212967
3.288531,3.297306,2.934139,3.209743
3.288481,3.297336,2.930916,3.209743
3.288486,3.297230,2.931722,3.214579
3.288597,3.297356,2.933333,3.214579
3.288295,3.297124,2.928498,3.208938
3.288345,3.297215,2.927692,3.210549
3.288410,3.297200,2.926081,3.212161
3.288390,3.297255,2.927692,3.211355
3.288133,3.297094,2.922857,3.204103
3.288315,3.297129,2.926081,3.206520
3.288259,3.297165,2.926081,3.205714
3.288325,3.297149,2.926081,3.208132
3.288078,3.297134,2.920439,3.204908
3.288234,3.297170,2.917216,3.208132
3.288229,3.297270,2.922051,3.207326
3.288113,3.297180,2.925275,3.208938
3.288184,3.297165,2.921245,3.209743
3.288254,3.297170,2.926081,3.209743
3.288310,3.297210,2.925275,3.212161
3.288229,3.297200,2.924469,3.209743
3.288300,3.297170,2.925275,3.209743
3.288310,3.297250,2.927692,3.209743
3.288491,3.297295,2.933333,3.220220
3.288264,3.297159,2.922051,3.209743
3.288410,3.297255,2.926081,3.210549
3.288496,3.297245,2.926887,3.209743
3.288511,3.297230,2.934139,3.208132
3.288295,3.297190,2.926081,3.209743
3.288431,3.297275,2.926081,3.212161
3.288536,3.297366,2.933333,3.212161
3.288506,3.297210,2.926887,3.210549
3.288385,3.297230,2.927692,3.209743
3.288481,3.297311,2.934945,3.210549
3.288491,3.297371,2.931722,3.212967
3.288340,3.297195,2.930110,3.209743
3.288415,3.297235,2.928498,3.209743
3.288365,3.297230,2.930110,3.213773
3.288516,3.297290,2.943004,3.213773
3.288325,3.297170,2.926081,3.209743
3.288415,3.297220,2.930110,3.212161
3.288400,3.297200,2.928498,3.202491
3.288431,3.297185,2.930916,3.208938
3.288224,3.297165,2.924469,3.208938
3.288274,3.297190,2.926887,3.208938
3.288325,3.297205,2.921245,3.209743
3.288269,3.297190,2.930916,3.206520
3.288189,3.297139,2.920439,3.208132
3.288214,3.297190,2.926887,3.211355
3.288274,3.297316,2.926081,3.208938
3.288229,3.297124,2.921245,3.208132
3.288078,3.297180,2.922857,3.209743
3.288209,3.297154,2.920439,3.204908
3.288315,3.297180,2.925275,3.210549
3.288028,3.297023,2.915604,3.201685
3.288038,3.297159,2.920439,3.199267
3.288038,3.297114,2.918022,3.208132
3.288169,3.297084,2.917216,3.209743
3.287922,3.296933,2.915604,3.197656
3.288038,3.297114,2.913993,3.209743
3.287927,3.297079,2.913187,3.204103
3.287917,3.297054,2.913993,3.201685
3.287761,3.296993,2.907546,3.199267
3.287907,3.297089,2.909158,3.203297
3.287811,3.297109,2.910769,3.210549
3.287685,3.296933,2.902711,3.206520
3.287650,3.297034,2.905934,3.203297
3.287736,3.297034,2.910769,3.202491
3.287786,3.297059,2.905128,3.200879
3.287746,3.296762,2.899487,3.199267
3.287660,3.296948,2.899487,3.200879
3.287584,3.296948,2.903517,3.201685
3.287670,3.296837,2.905934,3.204103
3.287519,3.296757,2.900293,3.196850
3.287564,3.296913,2.901099,3.198462
3.287554,3.296938,2.899487,3.197656
3.287519,3.296817,2.905934,3.196850
3.287433,3.296842,2.894652,3.192015
3.287539,3.296837,2.900293,3.197656
3.287519,3.297089,2.901905,3.200879
3.287428,3.296792,2.901905,3.199267
3.287433,3.296822,2.898681,3.196850
3.287469,3.296842,2.898681,3.197656
3.287514,3.296893,2.900293,3.200879
3.287413,3.296757,2.896264,3.196850
3.287433,3.296812,2.895458,3.200879
3.287443,3.296807,2.899487,3.196850
3.287428,3.296842,2.897876,3.199267
3.287297,3.296676,2.896264,3.183956
3.287378,3.296792,2.894652,3.197656
3.287358,3.296787,2.892234,3.200879
3.287443,3.296782,2.899487,3.194432
3.287257,3.296716,2.884982,3.195238
3.287312,3.296752,2.892234,3.189597
3.287328,3.296913,2.892234,3.196850
3.287343,3.296671,2.896264,3.194432
3.287292,3.296802,2.897070,3.196044
3.287292,3.296762,2.893040,3.196850
3.287403,3.296812,2.891428,3.202491
3.287151,3.296726,2.892234,3.192015
3.287116,3.296777,2.894652,3.196850
3.287217,3.296812,2.889011,3.196850
3.287338,3.296817,2.897070,3.193626
3.287046,3.296590,2.891428,3.192821
3.287252,3.296752,2.889817,3.192821
3.287161,3.296741,2.883370,3.194432
3.287262,3.296731,2.892234,3.196044
3.286960,3.296706,2.888205,3.186374
3.287066,3.296772,2.896264,3.191209
3.287222,3.296782,2.892234,3.196850
3.287207,3.296746,2.894652,3.195238
3.287242,3.296772,2.889817,3.196044
3.287378,3.296817,2.900293,3.199267
3.287544,3.296993,2.899487,3.206520
3.287519,3.296832,2.900293,3.196850
3.287615,3.297049,2.908352,3.201685
3.287877,3.297084,2.913187,3.205714
3.288144,3.297220,2.916410,3.209743
3.288194,3.297175,2.918022,3.207326
3.288431,3.297316,2.930916,3.213773
3.288587,3.297431,2.930916,3.213773
3.288743,3.297336,2.947839,3.209743
3.288738,3.297487,2.939780,3.215385
3.289010,3.297623,2.947033,3.221026
3.289131,3.297719,2.950256,3.231502
3.289181,3.297512,2.951868,3.212967
3.289186,3.297643,2.954286,3.221026
3.289322,3.297688,2.951868,3.227473
3.289413,3.297960,2.956703,3.222637
3.289332,3.297628,2.962344,3.226667
3.289388,3.297784,2.959121,3.229890
3.289503,3.297794,2.963956,3.233114
3.289649,3.297915,2.966374,3.231502
3.289433,3.297648,2.959927,3.217802
3.289503,3.297759,2.960733,3.221026
3.289488,3.297719,2.962344,3.224249
3.289478,3.297678,2.963956,3.228278
3.289277,3.297578,2.956703,3.223443
3.289383,3.297648,2.959121,3.223443
3.289337,3.297703,2.960733,3.225055
3.289277,3.297623,2.954286,3.222637
3.289095,3.297593,2.951868,3.221832
3.289252,3.297598,2.953480,3.224249
3.289181,3.297688,2.952674,3.227473
3.289131,3.297482,2.953480,3.218608
3.289095,3.297603,2.947033,3.221832
3.289111,3.297562,2.948645,3.217802
3.289191,3.297593,2.951062,3.224249
3.289055,3.297376,2.945421,3.222637
3.289111,3.297436,2.951062,3.216996
3.289035,3.297507,2.950256,3.220220
3.289020,3.297628,2.951062,3.217802
3.288748,3.297316,2.947839,3.215385
3.288879,3.297421,2.947033,3.212967
3.288803,3.297361,2.941392,3.212967
3.288823,3.297356,2.939780,3.216996
3.288637,3.297326,2.935751,3.211355
3.288738,3.297411,2.941392,3.215385
3.288728,3.297668,2.939780,3.216191
3.288597,3.297295,2.930916,3.209743
3.288541,3.297321,2.931722,3.211355
3.288612,3.297245,2.935751,3.212161
3.288632,3.297346,2.933333,3.213773
3.288360,3.297195,2.930916,3.209743
3.288405,3.297205,2.928498,3.212161
3.288340,3.297180,2.930110,3.210549
3.288355,3.297250,2.929304,3.210549
3.288229,3.297109,2.925275,3.200073
