3.277446,3.295502,2.577949,3.154945
3.277532,3.295406,2.580366,3.153333
3.277240,3.295265,2.569890,3.145275
3.277340,3.295417,2.575531,3.146080
3.277255,3.295366,2.573113,3.150110
3.277164,3.295245,2.573919,3.145275
3.276978,3.295190,2.560220,3.145275
3.276963,3.295235,2.565055,3.145275
3.276993,3.295417,2.563443,3.153333
3.276746,3.295104,2.552967,3.144469
3.276711,3.295205,2.552967,3.143663
3.276721,3.295170,2.557802,3.142051
3.276847,3.295255,2.555385,3.146886
3.276605,3.295024,2.547326,3.139634
3.276535,3.295195,2.549744,3.142857
3.276519,3.295155,2.546520,3.142857
3.276610,3.295155,2.549744,3.145275
3.276247,3.294963,2.542491,3.137216
3.276383,3.295099,2.547326,3.142857
3.276399,3.295094,2.544909,3.141245
3.276484,3.294998,2.550550,3.138022
3.276217,3.294983,2.536850,3.135604
3.276414,3.295114,2.551355,3.142857
3.276454,3.295215,2.544103,3.142051
3.276278,3.295019,2.544103,3.139634
3.276253,3.295029,2.539267,3.140440
3.276439,3.295099,2.548132,3.140440
3.276540,3.295205,2.544909,3.145275
3.276313,3.294988,2.543297,3.134799
3.276373,3.295064,2.540073,3.139634
3.276333,3.295104,2.546520,3.145275
3.276514,3.295145,2.546520,3.142857
3.276247,3.294923,2.539267,3.133187
3.276358,3.295104,2.544909,3.137216
3.276348,3.295134,2.539267,3.143663
3.276363,3.295009,2.552967,3.139634
3.276202,3.295019,2.538461,3.141245
3.276378,3.295099,2.539267,3.143663
3.276318,3.295225,2.542491,3.139634
3.276217,3.294963,2.544909,3.136410
3.276217,3.295044,2.539267,3.138022
3.276263,3.295104,2.540073,3.141245
3.276303,3.295155,2.540879,3.145275
3.276232,3.294893,2.539267,3.137216
3.276217,3.295140,2.541685,3.142857
3.276242,3.295079,2.539267,3.140440
3.276378,3.295129,2.544909,3.139634
3.276162,3.294857,2.543297,3.133187
3.276253,3.294998,2.542491,3.142857
3.276157,3.295034,2.538461,3.138828
3.276293,3.294903,2.539267,3.141245
3.275945,3.294868,2.527179,3.133993
3.276212,3.295019,2.530403,3.139634
3.276021,3.295064,2.536850,3.140440
3.275890,3.294903,2.534432,3.133993
3.275865,3.294913,2.527985,3.136410
3.276081,3.295034,2.530403,3.137216
3.276011,3.295134,2.531209,3.145275
3.275850,3.294832,2.527985,3.133993
3.275845,3.294993,2.527179,3.141245
3.275895,3.294913,2.527985,3.135604
3.275976,3.295009,2.531209,3.132381
3.275754,3.294747,2.525568,3.132381
3.275794,3.294893,2.519121,3.132381
3.275840,3.294847,2.525568,3.136410
3.275789,3.294797,2.527985,3.132381
3.275552,3.294792,2.515898,3.131575
3.275739,3.294832,2.522344,3.131575
3.275774,3.294852,2.524762,3.132381
3.275653,3.294782,2.528791,3.132381
3.275527,3.294772,2.517509,3.131575
3.275704,3.294802,2.522344,3.132381
3.275699,3.294983,2.520733,3.140440
3.275522,3.294752,2.513480,3.132381
3.275487,3.294822,2.519121,3.132381
3.275512,3.294832,2.517509,3.132381
3.275764,3.294913,2.525568,3.136410
3.275467,3.294646,2.511868,3.126740
3.275452,3.294787,2.513480,3.132381
3.275447,3.294787,2.516703,3.130769
3.275552,3.294757,2.514286,3.128352
3.275280,3.294737,2.509450,3.129158
3.275421,3.294802,2.515092,3.131575
3.275401,3.294772,2.511868,3.132381
3.275376,3.294691,2.503004,3.129963
3.275200,3.294696,2.505421,3.129963
3.275401,3.294747,2.508645,3.129963
3.275366,3.294893,2.511062,3.136410
3.275195,3.294666,2.503004,3.125934
3.275180,3.294742,2.509450,3.126740
3.275260,3.294762,2.506227,3.128352
3.275442,3.294787,2.512674,3.129963
3.275200,3.294515,2.502198,3.129158
3.275134,3.294716,2.504615,3.129963
3.275175,3.294747,2.503809,3.130769
3.275336,3.294752,2.506227,3.130769
3.275008,3.294591,2.504615,3.127546
3.275200,3.294711,2.504615,3.127546
3.275195,3.294696,2.503809,3.129158
3.275180,3.294676,2.498168,3.126740
3.274908,3.294585,2.498974,3.126740
3.275069,3.294737,2.503004,3.128352
3.275074,3.294852,2.500586,3.132381
3.274938,3.294591,2.490110,3.125934
3.274938,3.294636,2.494945,3.124322
3.274963,3.294711,2.501392,3.125128
3.275165,3.294777,2.503004,3.130769
3.274893,3.294455,2.496557,3.122711
3.274893,3.294596,2.494945,3.124322
3.274913,3.294651,2.496557,3.128352
3.275069,3.294727,2.500586,3.121905
3.274711,3.294515,2.493333,3.121099
3.275014,3.294656,2.501392,3.122711
3.275029,3.294686,2.503004,3.129963
3.275155,3.294606,2.502198,3.126740
3.274938,3.294631,2.498974,3.122711
3.275225,3.294757,2.511062,3.130769
3.275432,3.294943,2.512674,3.133187
3.275462,3.294782,2.512674,3.132381
3.275653,3.294883,2.521538,3.132381
3.276006,3.295140,2.526374,3.141245
3.276323,3.295281,2.538461,3.146080
3.276514,3.295160,2.548132,3.145275
3.276817,3.295417,2.559414,3.150110
3.277134,3.295542,2.566667,3.157363
3.277658,3.295653,2.585202,3.159780
3.277713,3.295542,2.587619,3.152528
3.278116,3.295759,2.598095,3.163810
3.278307,3.295865,2.607766,3.163810
3.278685,3.295835,2.619048,3.168645
3.278534,3.295845,2.612601,3.168645
3.278796,3.296006,2.625494,3.170256
3.278872,3.296091,2.624689,3.168645
3.278967,3.295976,2.629524,3.168645
3.278892,3.295925,2.622271,3.171062
3.278977,3.295966,2.623883,3.171868
3.279028,3.296117,2.628718,3.179927
3.278922,3.295895,2.625494,3.170256
3.278912,3.296011,2.624689,3.175092
3.278947,3.296051,2.627106,3.171868
3.279083,3.296056,2.631135,3.169451
3.278741,3.295794,2.627106,3.160586
3.278947,3.296026,2.621465,3.171062
3.278846,3.295945,2.622271,3.170256
3.278932,3.295925,2.626300,3.169451
3.278600,3.295814,2.614213,3.161392
3.278731,3.295935,2.620659,3.168645
3.278665,3.295920,2.616630,3.166227
3.278549,3.295865,2.612601,3.163004
3.278449,3.295794,2.614213,3.161392
3.278574,3.295789,2.617436,3.163810
3.278539,3.295981,2.615824,3.171868
3.278388,3.295618,2.607766,3.162198
3.278413,3.295824,2.607766,3.159780
3.278449,3.295845,2.609377,3.162198
3.278559,3.295850,2.611795,3.166227
3.278242,3.295583,2.602930,3.158169
3.278252,3.295704,2.601319,3.160586
3.278166,3.295714,2.596483,3.160586
3.278328,3.295678,2.600513,3.163004
3.277895,3.295568,2.591648,3.158169
3.278046,3.295704,2.596483,3.158974
3.277970,3.295603,2.596483,3.158169
3.277895,3.295532,2.592454,3.158169
3.277748,3.295558,2.590037,3.154139
3.277764,3.295547,2.590037,3.158169
3.277733,3.295663,2.588425,3.162198
3.277557,3.295427,2.581978,3.153333
3.277487,3.295517,2.578755,3.149304
3.277451,3.295472,2.580366,3.148498
3.277552,3.295547,2.584396,3.157363
3.277199,3.295195,2.570696,3.146080
3.277159,3.295427,2.569084,3.146080
3.277220,3.295376,2.569084,3.150110
3.277194,3.295351,2.573919,3.147692
3.276943,3.295165,2.565055,3.145275
3.276968,3.295321,2.565055,3.150916
3.276998,3.295301,2.564249,3.146080
3.276892,3.295225,2.563443,3.145275
3.276761,3.295210,2.552161,3.144469
3.276746,3.295281,2.557802,3.145275
3.276897,3.295482,2.560220,3.154139
3.276716,3.295150,2.552161,3.145275
3.276716,3.295190,2.552967,3.145275
3.276786,3.295220,2.554579,3.145275
3.276912,3.295270,2.556996,3.149304
3.276625,3.295064,2.559414,3.142857
3.276686,3.295215,2.553773,3.145275
3.276666,3.295205,2.552161,3.146080
3.276837,3.295225,2.561026,3.149304
3.276499,3.295049,2.551355,3.141245
3.276691,3.295190,2.556996,3.144469
3.276686,3.295190,2.551355,3.145275
3.276731,3.295150,2.559414,3.136410
3.276489,3.295160,2.545714,3.141245
3.276721,3.295225,2.549744,3.145275
3.276711,3.295457,2.555385,3.146886
3.276620,3.295145,2.556996,3.142857
3.276595,3.295175,2.552967,3.144469
3.276706,3.295245,2.556190,3.145275
3.276847,3.295371,2.554579,3.147692
3.276635,3.295079,2.551355,3.143663
3.276640,3.295235,2.552967,3.145275
3.276681,3.295170,2.551355,3.146886
3.276832,3.295225,2.559414,3.150916
3.276474,3.295084,2.548938,3.139634
3.276661,3.295240,2.550550,3.142857
3.276595,3.295180,2.547326,3.143663
3.276615,3.295140,2.556190,3.139634
3.276338,3.295099,2.543297,3.142857
3.276489,3.295225,2.553773,3.142857
3.276535,3.295275,2.547326,3.145275
3.276464,3.295079,2.549744,3.144469
3.276363,3.295134,2.541685,3.142857
3.276479,3.295155,2.546520,3.144469
3.276459,3.295220,2.546520,3.145275
3.276313,3.294988,2.539267,3.140440
3.276323,3.295134,2.540879,3.142857
3.276318,3.295084,2.541685,3.141245
3.276409,3.295145,2.544103,3.145275
3.276122,3.294868,2.540073,3.136410
3.276258,3.294958,2.543297,3.140440
3.276217,3.295074,2.540073,3.137216
3.276242,3.294983,2.534432,3.138022
3.275976,3.294958,2.530403,3.134799
3.276152,3.295024,2.540073,3.140440
3.276081,3.295064,2.530403,3.135604
3.276096,3.294983,2.539267,3.134799
3.275905,3.294938,2.528791,3.135604
3.276127,3.294993,2.536044,3.137216
3.276016,3.295150,2.533626,3.143663
3.275895,3.294857,2.530403,3.132381
3.275880,3.294978,2.526374,3.138022
3.275835,3.294928,2.527179,3.137216
3.276001,3.294938,2.528791,3.143663
3.275804,3.294727,2.520733,3.132381
3.275824,3.294983,2.523956,3.132381
3.275794,3.294888,2.526374,3.132381
3.275845,3.294817,2.522344,3.134799
3.275472,3.294767,2.519121,3.132381
3.275648,3.294837,2.526374,3.132381
3.275678,3.294883,2.522344,3.134799
3.275497,3.294777,2.520733,3.130769
3.275477,3.294777,2.511062,3.132381
3.275593,3.294802,2.519121,3.132381
3.275678,3.294993,2.520733,3.138022
3.275482,3.294787,2.515092,3.132381
3.275527,3.294868,2.514286,3.132381
3.275537,3.294822,2.514286,3.136410
3.275759,3.294928,2.522344,3.137216
3.275411,3.294676,2.511062,3.129963
3.275406,3.294822,2.513480,3.135604
3.275442,3.294767,2.512674,3.132381
3.275603,3.294782,2.517509,3.137216
3.275180,3.294721,2.511868,3.128352
3.275386,3.294772,2.513480,3.132381
3.275422,3.294762,2.511062,3.132381
3.275351,3.294716,2.513480,3.129158
3.275240,3.294706,2.507839,3.129158
3.275331,3.294752,2.509450,3.130769
3.275275,3.294908,2.507839,3.138022
3.275170,3.294737,2.502198,3.129963
3.275134,3.294757,2.504615,3.131575
3.275185,3.294752,2.506227,3.132381
3.275401,3.294908,2.505421,3.132381
3.275180,3.294591,2.506227,3.127546
3.275099,3.294762,2.502198,3.129963
3.275099,3.294737,2.505421,3.132381
3.275240,3.294767,2.509450,3.125128
3.274938,3.294636,2.502198,3.128352
3.275003,3.294742,2.504615,3.129158
3.275024,3.294711,2.503004,3.130769
3.275165,3.294651,2.509450,3.125128
3.274903,3.294691,2.495751,3.128352
3.274988,3.294686,2.501392,3.129963
3.274993,3.294918,2.498974,3.132381
3.274928,3.294681,2.501392,3.126740
3.274928,3.294691,2.493333,3.129963
3.274973,3.294651,2.498168,3.129963
3.275049,3.294737,2.498168,3.130769
3.274757,3.294500,2.491722,3.121099
3.274832,3.294691,2.494945,3.131575
3.274822,3.294641,2.490110,3.127546
3.274968,3.294721,2.500586,3.132381
3.274706,3.294500,2.490916,3.125128
3.274918,3.294681,2.495751,3.130769
3.274812,3.294701,2.492527,3.130769
3.274862,3.294611,2.499780,3.123517
3.274742,3.294621,2.490110,3.121905
3.275039,3.294716,2.491722,3.130769
3.275064,3.294888,2.498974,3.132381
3.275044,3.294721,2.505421,3.132381
3.275205,3.294757,2.503004,3.130769
3.275432,3.294857,2.513480,3.132381
3.275714,3.295089,2.520733,3.139634
3.275809,3.294898,2.526374,3.133993
3.276031,3.295190,2.533626,3.138022
3.276424,3.295250,2.543297,3.149304
3.276862,3.295482,2.556190,3.155751
3.276922,3.295336,2.560220,3.148498
3.277441,3.295563,2.577143,3.158169
3.277693,3.295603,2.586007,3.158169
3.277879,3.295643,2.593260,3.158169
3.277925,3.295653,2.590842,3.160586
3.278287,3.295819,2.604542,3.161392
3.278474,3.295945,2.608572,3.166227
3.278534,3.295875,2.609377,3.160586
3.278504,3.295860,2.611795,3.165421
3.278595,3.295860,2.609377,3.166227
3.278574,3.296112,2.613407,3.172674
3.278549,3.295824,2.612601,3.167839
3.278539,3.295930,2.614213,3.169451
3.278605,3.295955,2.614213,3.166227
3.278675,3.295996,2.616630,3.173480
3.278454,3.295683,2.611795,3.159780
3.278595,3.295870,2.613407,3.170256
3.278484,3.295895,2.609377,3.164615
3.278494,3.295880,2.608572,3.165421
3.278151,3.295678,2.599707,3.160586
3.278282,3.295719,2.605348,3.163004
3.278207,3.295850,2.602124,3.163004
3.278151,3.295673,2.598095,3.158974
3.277995,3.295678,2.594872,3.159780
3.278076,3.295673,2.595678,3.159780
3.278056,3.295870,2.598901,3.168645
3.277854,3.295598,2.592454,3.158169
3.277839,3.295673,2.590037,3.158169
3.277839,3.295613,2.586007,3.158169
3.277894,3.295744,2.594872,3.158974
3.277587,3.295492,2.581978,3.150916
3.277723,3.295573,2.581172,3.162198
3.277623,3.295568,2.581978,3.158169
3.277562,3.295522,2.582784,3.158974
3.277295,3.295401,2.573113,3.155751
3.277431,3.295507,2.573919,3.154139
3.277351,3.295492,2.577949,3.150110
3.277129,3.295386,2.577949,3.149304
3.277058,3.295321,2.565055,3.154139
3.277058,3.295432,2.566667,3.150916
3.277038,3.295517,2.565055,3.157363
3.276842,3.295260,2.557802,3.145275
3.276731,3.295386,2.553773,3.149304
3.276776,3.295250,2.556190,3.149304
3.276882,3.295281,2.561026,3.146080
3.276389,3.295094,2.543297,3.140440
3.276409,3.295180,2.540879,3.144469
3.276333,3.295124,2.540073,3.143663
3.276383,3.295124,2.541685,3.149304
3.275915,3.294953,2.532820,3.137216
3.276172,3.295084,2.537656,3.136410
3.276142,3.295059,2.534432,3.141245
3.276117,3.294963,2.524762,3.134799
3.275749,3.294903,2.524762,3.136410
3.275885,3.294973,2.522344,3.137216
3.275870,3.295145,2.527985,3.145275
3.275729,3.294903,2.518315,3.138022
3.275653,3.294973,2.524762,3.134799
3.275749,3.294933,2.522344,3.137216
3.275819,3.295044,2.522344,3.140440
3.275547,3.294772,2.516703,3.131575
3.275532,3.294923,2.517509,3.136410
3.275588,3.294893,2.520733,3.135604
3.275653,3.294857,2.523150,3.141245
3.275406,3.294767,2.517509,3.132381
3.275568,3.294898,2.520733,3.137216
3.275502,3.294953,2.514286,3.133993
3.275623,3.294792,2.524762,3.133187
3.275416,3.294802,2.513480,3.133187
3.275432,3.294878,2.515092,3.133993
3.275427,3.295054,2.513480,3.134799
3.275321,3.294777,2.507839,3.132381
3.275361,3.294817,2.507839,3.132381
3.275386,3.294817,2.512674,3.132381
3.275482,3.294933,2.513480,3.136410
3.275190,3.294676,2.509450,3.131575
3.275321,3.294812,2.510257,3.132381
3.275255,3.294772,2.509450,3.131575
3.275356,3.294857,2.513480,3.131575
3.275054,3.294661,2.506227,3.127546
3.275255,3.294767,2.511868,3.129963
3.275205,3.294767,2.501392,3.132381
3.275280,3.294706,2.513480,3.121905
3.274903,3.294691,2.493333,3.127546
3.275049,3.294762,2.499780,3.131575
3.274928,3.294837,2.497363,3.131575
3.274862,3.294636,2.498168,3.125934
3.274742,3.294666,2.491722,3.126740
3.274777,3.294696,2.498168,3.127546
3.274787,3.294787,2.490110,3.130769
3.274616,3.294535,2.487692,3.121905
3.274631,3.294706,2.486081,3.128352
3.274646,3.294716,2.486887,3.129963
3.274716,3.294767,2.492527,3.123517
3.274485,3.294475,2.480440,3.119487
3.274575,3.294661,2.486887,3.125128
3.274565,3.294641,2.486887,3.125128
3.274580,3.294565,2.487692,3.126740
3.274203,3.294510,2.470769,3.121099
3.274354,3.294585,2.479634,3.125128
3.274298,3.294691,2.480440,3.124322
3.274288,3.294480,2.476410,3.121905
3.274092,3.294520,2.469963,3.121905
3.274258,3.294555,2.472381,3.123517
3.274102,3.294656,2.472381,3.127546
3.274062,3.294379,2.465934,3.114652
3.273961,3.294505,2.469157,3.123517
3.274208,3.294565,2.469963,3.118681
3.274303,3.294671,2.477216,3.129963
3.274026,3.294303,2.464322,3.117876
3.273996,3.294475,2.465934,3.125128
3.273951,3.294465,2.469963,3.120293
3.274203,3.294439,2.472381,3.124322
3.273699,3.294369,2.459487,3.117876
3.273875,3.294399,2.462711,3.115458
3.273810,3.294429,2.461905,3.121099
3.273780,3.294344,2.465934,3.117876
3.273769,3.294374,2.457070,3.117069
3.273785,3.294359,2.461905,3.117876
3.273769,3.294565,2.459487,3.125128
3.273674,3.294303,2.457875,3.115458
3.273633,3.294434,2.456264,3.118681
3.273754,3.294384,2.457875,3.120293
3.273810,3.294455,2.461905,3.119487
3.273588,3.294183,2.450623,3.115458
3.273704,3.294379,2.453846,3.120293
3.273613,3.294389,2.459487,3.121905
3.273714,3.294233,2.461099,3.121099
3.273422,3.294228,2.450623,3.111428
3.273533,3.294288,2.453846,3.117069
3.273508,3.294354,2.456264,3.114652
3.273492,3.294248,2.453846,3.113846
3.273427,3.294248,2.448205,3.114652
3.273593,3.294334,2.457070,3.115458
3.273482,3.294465,2.451429,3.124322
3.273372,3.294268,2.448205,3.112234
3.273437,3.294319,2.446594,3.117876
3.273452,3.294293,2.451429,3.113040
3.273649,3.294449,2.451429,3.120293
3.273316,3.294062,2.444982,3.106593
3.273382,3.294263,2.449817,3.111428
3.273422,3.294288,2.448205,3.115458
3.273498,3.294364,2.454652,3.115458
3.273185,3.294157,2.444176,3.111428
3.273271,3.294308,2.446594,3.114652
3.273351,3.294258,2.446594,3.115458
3.273341,3.294183,2.439341,3.113846
3.273105,3.294188,2.438535,3.113846
3.273261,3.294283,2.449817,3.114652
3.273261,3.294485,2.441758,3.117069
3.273150,3.294183,2.447399,3.109011
3.273150,3.294253,2.438535,3.110623
3.273226,3.294248,2.440146,3.118681
3.273392,3.294389,2.444176,3.118681
3.273140,3.294047,2.440952,3.106593
3.273190,3.294303,2.444176,3.112234
3.273236,3.294283,2.440952,3.116264
3.273281,3.294268,2.445787,3.113846
3.273004,3.294021,2.440952,3.106593
3.273160,3.294288,2.440146,3.109817
3.273095,3.294213,2.436923,3.113846
3.273090,3.294157,2.444176,3.115458
3.272979,3.294107,2.436117,3.106593
3.273044,3.294218,2.443370,3.113846
3.273034,3.294384,2.437729,3.115458
3.273019,3.294122,2.437729,3.108205
3.272954,3.294102,2.434505,3.109011
3.273059,3.294213,2.436117,3.113846
3.273115,3.294319,2.436117,3.117069
3.272959,3.294016,2.436117,3.108205
3.272964,3.294203,2.432088,3.115458
3.273059,3.294213,2.436117,3.110623
3.273120,3.294213,2.438535,3.118681
3.272928,3.293996,2.432088,3.106593
3.273074,3.294253,2.444982,3.109011
3.273110,3.294228,2.440952,3.111428
3.273210,3.294183,2.441758,3.109011
3.272999,3.294117,2.436117,3.108205
3.273326,3.294278,2.443370,3.115458
3.273367,3.294439,2.441758,3.115458
3.273372,3.294313,2.441758,3.113846
3.273523,3.294374,2.456264,3.116264
3.273895,3.294490,2.461905,3.123517
3.274248,3.294757,2.472381,3.132381
3.274444,3.294646,2.480440,3.121905
3.274621,3.294792,2.487692,3.133993
3.274943,3.294948,2.494945,3.134799
3.275381,3.295079,2.506227,3.136410
3.275336,3.294802,2.513480,3.132381
3.275683,3.295059,2.519121,3.142857
3.275860,3.295134,2.526374,3.141245
3.276132,3.295150,2.533626,3.143663
3.275940,3.295114,2.527179,3.142857
3.276187,3.295220,2.539267,3.144469
3.276247,3.295281,2.539267,3.147692
3.276338,3.295205,2.547326,3.145275
3.276253,3.295235,2.539267,3.143663
3.276323,3.295255,2.544909,3.146080
3.276409,3.295366,2.547326,3.150916
3.276217,3.295185,2.539267,3.143663
3.276207,3.295260,2.539267,3.145275
3.276227,3.295220,2.539267,3.145275
3.276333,3.295296,2.540879,3.147692
3.276187,3.295094,2.532015,3.140440
3.276182,3.295155,2.534432,3.145275
3.276106,3.295170,2.534432,3.144469
3.276031,3.295094,2.537656,3.141245
3.275749,3.295034,2.525568,3.138022
3.275834,3.295175,2.526374,3.141245
3.275804,3.295099,2.526374,3.140440
3.275784,3.294993,2.524762,3.141245
3.275512,3.294958,2.518315,3.135604
3.275573,3.295004,2.514286,3.137216
3.275477,3.295155,2.515898,3.142857
3.275416,3.294898,2.511868,3.132381
3.275386,3.294993,2.512674,3.132381
3.275356,3.294948,2.513480,3.132381
3.275467,3.294903,2.515092,3.133993
3.275240,3.294747,2.503004,3.133187
3.275180,3.294847,2.502198,3.130769
3.275119,3.294862,2.504615,3.132381
3.275210,3.294817,2.508645,3.139634
3.274857,3.294711,2.493333,3.129963
3.274953,3.294807,2.495751,3.131575
3.274903,3.294747,2.499780,3.132381
3.274857,3.294641,2.494945,3.125128
3.274661,3.294721,2.487692,3.127546
3.274747,3.294742,2.488498,3.131575
3.274696,3.294852,2.490110,3.136410
3.274590,3.294606,2.487692,3.128352
3.274530,3.294681,2.485275,3.123517
3.274550,3.294666,2.483663,3.129963
3.274601,3.294727,2.482857,3.131575
3.274329,3.294434,2.476410,3.121905
3.274303,3.294696,2.472381,3.129963
3.274263,3.294636,2.467546,3.127546
3.274364,3.294626,2.483663,3.127546
3.273895,3.294399,2.462711,3.118681
3.273976,3.294575,2.470769,3.121905
3.273926,3.294560,2.466740,3.125128
3.274062,3.294449,2.465934,3.123517
3.273810,3.294434,2.461905,3.119487
3.273966,3.294515,2.464322,3.123517
3.273941,3.294701,2.462711,3.123517
3.273769,3.294394,2.465934,3.117876
3.273790,3.294520,2.461099,3.120293
3.273880,3.294510,2.464322,3.120293
3.274001,3.294621,2.465934,3.125934
3.273830,3.294303,2.461905,3.121099
3.273800,3.294575,2.461905,3.125128
3.273850,3.294500,2.462711,3.122711
3.274026,3.294631,2.470769,3.126740
3.273800,3.294379,2.459487,3.117069
3.273951,3.294510,2.461905,3.125128
3.273910,3.294460,2.469157,3.125128
3.273845,3.294434,2.469157,3.124322
3.273790,3.294444,2.463516,3.121099
3.273951,3.294535,2.469157,3.120293
3.273946,3.294631,2.463516,3.122711
3.273855,3.294449,2.465934,3.121099
3.273850,3.294465,2.465128,3.119487
3.273916,3.294500,2.464322,3.121905
3.273951,3.294691,2.465934,3.127546
3.273825,3.294379,2.462711,3.117876
3.273825,3.294525,2.463516,3.121099
3.273855,3.294611,2.465934,3.123517
3.274137,3.294621,2.476410,3.127546
3.273774,3.294329,2.461905,3.117876
3.273905,3.294505,2.462711,3.121905
3.273855,3.294575,2.462711,3.120293
3.273991,3.294465,2.467546,3.120293
3.273744,3.294384,2.457875,3.118681
3.273769,3.294510,2.462711,3.120293
3.273795,3.294530,2.463516,3.119487
3.273704,3.294399,2.453040,3.117069
3.273669,3.294409,2.457070,3.120293
3.273759,3.294449,2.461099,3.121905
3.273790,3.294570,2.461099,3.129963
3.273613,3.294288,2.457875,3.121099
3.273618,3.294475,2.456264,3.123517
3.273573,3.294394,2.456264,3.120293
3.273719,3.294460,2.459487,3.120293
3.273442,3.294218,2.450623,3.111428
3.273538,3.294349,2.449817,3.118681
3.273533,3.294369,2.448205,3.121905
3.273664,3.294379,2.456264,3.109817
3.273210,3.294243,2.440952,3.110623
3.273427,3.294354,2.447399,3.119487
3.273346,3.294339,2.451429,3.113846
3.273361,3.294253,2.449817,3.114652
3.273140,3.294303,2.439341,3.114652
3.273306,3.294303,2.448205,3.115458
3.273241,3.294414,2.441758,3.124322
3.273140,3.294238,2.444176,3.116264
3.273170,3.294339,2.438535,3.115458
3.273195,3.294278,2.441758,3.110623
3.273377,3.294394,2.449011,3.119487
3.273029,3.294052,2.436923,3.107399
3.273084,3.294283,2.437729,3.110623
3.273100,3.294278,2.435311,3.113846
3.273165,3.294298,2.437729,3.113846
3.272943,3.294107,2.430476,3.108205
3.273034,3.294213,2.436117,3.111428
3.273044,3.294273,2.436923,3.113846
3.272989,3.294162,2.437729,3.109817
3.272888,3.294077,2.434505,3.115458
3.273019,3.294253,2.440146,3.114652
3.272994,3.294394,2.434505,3.119487
3.272938,3.294067,2.433700,3.107399
3.272903,3.294238,2.432088,3.111428
3.272928,3.294253,2.435311,3.116264
3.273084,3.294319,2.436117,3.115458
3.272823,3.294021,2.427253,3.110623
3.272888,3.294283,2.432894,3.110623
3.272954,3.294147,2.434505,3.112234
3.272933,3.294137,2.434505,3.115458
3.272717,3.294062,2.424835,3.106593
3.272933,3.294178,2.430476,3.109011
3.272858,3.294183,2.427253,3.111428
3.272802,3.294052,2.424835,3.117069
3.272661,3.294102,2.423223,3.110623
3.272868,3.294178,2.431282,3.113846
3.272762,3.294359,2.431282,3.115458
3.272671,3.294031,2.430476,3.109011
3.272677,3.294117,2.427253,3.108205
3.272797,3.294102,2.430476,3.115458
3.272898,3.294324,2.430476,3.116264
3.272671,3.293991,2.424029,3.106593
3.272661,3.294167,2.427253,3.112234
3.272687,3.294172,2.424029,3.111428
3.272828,3.294142,2.435311,3.115458
3.272636,3.293976,2.419194,3.104982
3.272666,3.294172,2.424029,3.107399
3.272702,3.294152,2.425641,3.110623
3.272772,3.294072,2.432088,3.109011
3.272546,3.294006,2.420806,3.106593
3.272651,3.294147,2.428864,3.111428
3.272651,3.294308,2.424835,3.113040
3.272576,3.294047,2.427253,3.107399
3.272586,3.294052,2.422418,3.107399
3.272651,3.294147,2.423223,3.108205
3.272742,3.294228,2.423223,3.113846
3.272596,3.293976,2.422418,3.105788
3.272571,3.294087,2.422418,3.108205
3.272566,3.294072,2.423223,3.110623
3.272692,3.294183,2.426447,3.109817
3.272500,3.293971,2.415971,3.101758
3.272586,3.294097,2.423223,3.104982
3.272546,3.294077,2.419194,3.107399
3.272661,3.294067,2.419194,3.104982
3.272359,3.293961,2.413553,3.105788
3.272495,3.294102,2.422418,3.110623
3.272556,3.294233,2.420000,3.108205
3.272435,3.293996,2.415971,3.106593
3.272400,3.293996,2.411135,3.106593
3.272536,3.294087,2.417583,3.108205
3.272576,3.294278,2.422418,3.111428
3.272435,3.293971,2.423223,3.107399
3.272450,3.294132,2.416777,3.111428
3.272480,3.294142,2.420806,3.111428
3.272611,3.294233,2.425641,3.104982
3.272430,3.293946,2.418388,3.101758
3.272561,3.294122,2.417583,3.106593
3.272495,3.294062,2.414359,3.107399
3.272495,3.294006,2.423223,3.103370
3.272253,3.293961,2.410330,3.106593
3.272435,3.294072,2.421612,3.108205
3.272536,3.294157,2.422418,3.109011
3.272581,3.294011,2.413553,3.106593
3.272530,3.294006,2.421612,3.103370
3.272707,3.294178,2.424029,3.111428
3.272888,3.294359,2.433700,3.121905
3.272943,3.294208,2.430476,3.117069
3.273054,3.294399,2.436117,3.117876
3.273402,3.294455,2.448205,3.122711
3.273820,3.294686,2.461099,3.122711
3.273795,3.294470,2.461905,3.119487
3.274268,3.294711,2.469157,3.128352
3.274480,3.294802,2.480440,3.132381
3.274807,3.294883,2.496557,3.132381
3.274701,3.294812,2.494945,3.132381
3.275134,3.294993,2.503004,3.138022
3.275326,3.295084,2.509450,3.144469
3.275472,3.295024,2.513480,3.136410
3.275421,3.295079,2.514286,3.137216
3.275542,3.295185,2.515898,3.140440
3.275608,3.295250,2.515898,3.148498
3.275527,3.295049,2.515092,3.138022
3.275522,3.295160,2.515092,3.138022
3.275552,3.295124,2.520733,3.143663
3.275749,3.295195,2.525568,3.146886
3.275432,3.294878,2.511868,3.136410
3.275462,3.295119,2.513480,3.139634
3.275452,3.295074,2.515898,3.141245
3.275437,3.295019,2.515898,3.142857
3.275170,3.294933,2.504615,3.132381
3.275356,3.294948,2.512674,3.134799
3.275195,3.294928,2.508645,3.134799
3.275150,3.294817,2.509450,3.133187
3.274873,3.294802,2.494945,3.133993
3.274958,3.294832,2.499780,3.132381
3.274898,3.295029,2.490916,3.140440
3.274757,3.294752,2.497363,3.125128
3.274686,3.294782,2.490110,3.132381
3.274666,3.294772,2.492527,3.130769
3.274832,3.294822,2.490916,3.131575
3.274545,3.294616,2.483663,3.125128
3.274510,3.294737,2.485275,3.131575
3.274535,3.294752,2.484469,3.132381
3.274595,3.294727,2.486081,3.127546
3.274117,3.294575,2.469157,3.121905
3.274389,3.294676,2.478828,3.123517
3.274172,3.294696,2.475604,3.127546
3.274193,3.294570,2.479634,3.129963
3.273840,3.294555,2.461905,3.124322
3.274021,3.294636,2.464322,3.127546
3.273946,3.294716,2.465128,3.128352
3.273764,3.294470,2.461905,3.122711
3.273729,3.294424,2.459487,3.121099
3.273775,3.294449,2.459487,3.119487
3.273825,3.294701,2.458681,3.129963
3.273533,3.294324,2.455458,3.114652
3.273543,3.294414,2.449011,3.118681
3.273508,3.294455,2.452235,3.121099
3.273613,3.294424,2.456264,3.124322
3.273296,3.294238,2.440146,3.115458
3.273407,3.294470,2.446594,3.115458
3.273351,3.294414,2.444982,3.121099
3.273437,3.294298,2.453040,3.113846
3.273095,3.294273,2.436117,3.117876
3.273377,3.294334,2.448205,3.117069
3.273231,3.294500,2.447399,3.120293
3.273226,3.294359,2.440952,3.115458
3.273150,3.294293,2.436117,3.116264
3.273190,3.294359,2.441758,3.113846
3.273276,3.294535,2.444176,3.123517
3.273190,3.294223,2.441758,3.116264
3.273105,3.294319,2.440952,3.115458
3.273165,3.294379,2.444176,3.114652
3.273356,3.294379,2.447399,3.120293
3.273150,3.294162,2.440146,3.110623
3.273236,3.294384,2.444176,3.114652
3.273231,3.294344,2.443370,3.117876
3.273266,3.294233,2.444982,3.117876
3.273044,3.294293,2.436923,3.113040
3.273331,3.294389,2.445787,3.117876
3.273266,3.294434,2.442564,3.118681
3.273331,3.294329,2.449011,3.116264
3.273180,3.294349,2.441758,3.116264
3.273331,3.294444,2.449817,3.117069
3.273356,3.294555,2.444176,3.120293
3.273236,3.294268,2.441758,3.112234
3.273276,3.294439,2.444982,3.120293
3.273281,3.294419,2.446594,3.117876
3.273442,3.294434,2.449817,3.119487
3.273145,3.294258,2.444176,3.112234
3.273377,3.294374,2.444982,3.114652
3.273215,3.294404,2.444176,3.119487
3.273346,3.294329,2.449011,3.119487
3.273044,3.294253,2.436117,3.117069
3.273266,3.294409,2.446594,3.120293
3.273195,3.294379,2.440146,3.117069
3.273069,3.294288,2.440146,3.113846
3.272984,3.294203,2.435311,3.113846
3.273054,3.294334,2.439341,3.118681
3.273115,3.294500,2.438535,3.121905
3.272974,3.294253,2.435311,3.112234
3.272979,3.294329,2.432894,3.115458
3.273029,3.294288,2.440146,3.117069
3.273155,3.294364,2.440146,3.115458
3.272959,3.294087,2.436117,3.109817
3.272974,3.294268,2.434505,3.115458
3.272933,3.294298,2.428864,3.117876
3.273059,3.294268,2.436117,3.120293
3.272671,3.294057,2.425641,3.107399
3.272883,3.294243,2.432894,3.110623
3.272858,3.294273,2.428864,3.115458
3.272712,3.294142,2.432088,3.110623
3.272566,3.294107,2.423223,3.111428
3.272671,3.294162,2.430476,3.109817
3.272677,3.294379,2.424835,3.118681
3.272581,3.294057,2.418388,3.108205
3.272556,3.294183,2.420806,3.107399
3.272581,3.294112,2.421612,3.113846
3.272757,3.294324,2.423223,3.113846
3.272525,3.293991,2.422418,3.106593
3.272525,3.294097,2.418388,3.108205
3.272571,3.294132,2.423223,3.109817
3.272656,3.294031,2.423223,3.109011
3.272334,3.294001,2.419194,3.106593
3.272465,3.294087,2.422418,3.106593
3.272399,3.294132,2.414359,3.108205
3.272379,3.294042,2.422418,3.109011
3.272188,3.294006,2.410330,3.106593
3.272344,3.294097,2.418388,3.108205
3.272334,3.294293,2.417583,3.109817
3.272233,3.293986,2.419194,3.106593
3.272213,3.294067,2.410330,3.106593
3.272284,3.294052,2.411135,3.107399
3.272364,3.294132,2.413553,3.109011
3.272173,3.293936,2.409524,3.104176
3.272198,3.294001,2.410330,3.109011
3.272223,3.294001,2.409524,3.104982
3.272349,3.294082,2.417583,3.105788
3.272062,3.293916,2.404689,3.101758
3.272233,3.293981,2.415165,3.109011
3.272198,3.294042,2.408718,3.106593
3.272183,3.294011,2.410330,3.101758
3.271992,3.293941,2.399853,3.101758
3.272193,3.294042,2.409524,3.104982
3.272173,3.294152,2.410330,3.109011
3.272032,3.293966,2.403077,3.106593
3.272117,3.293991,2.404689,3.106593
3.272193,3.294001,2.410330,3.106593
3.272223,3.294097,2.407912,3.110623
3.272022,3.293900,2.399853,3.105788
3.272002,3.293961,2.403077,3.106593
3.272027,3.293946,2.407912,3.106593
3.272198,3.294057,2.410330,3.107399
3.271926,3.293820,2.401465,3.099341
3.272062,3.293976,2.408718,3.106593
3.272062,3.293956,2.403077,3.106593
3.272007,3.293895,2.399048,3.107399
3.271790,3.293926,2.395824,3.102564
3.271926,3.293976,2.401465,3.105788
3.272052,3.294082,2.399048,3.106593
3.271896,3.293941,2.403077,3.101758
3.271886,3.293941,2.402271,3.104982
3.271971,3.293976,2.400659,3.105788
3.272027,3.294026,2.399048,3.107399
3.271785,3.293845,2.396630,3.100952
3.271775,3.293981,2.398242,3.104982
3.271805,3.293956,2.401465,3.106593
3.272012,3.294006,2.402271,3.109011
3.271689,3.293759,2.390183,3.096117
3.271810,3.293900,2.402271,3.101758
3.271745,3.293936,2.398242,3.103370
3.271820,3.293780,2.399048,3.107399
3.271538,3.293840,2.392601,3.101758
3.271669,3.293936,2.395824,3.102564
3.271775,3.293951,2.393407,3.106593
3.271704,3.293895,2.395018,3.102564
3.271619,3.293880,2.388572,3.101758
3.271669,3.293916,2.391795,3.103370
3.271624,3.294001,2.392601,3.109817
3.271518,3.293734,2.386154,3.097729
3.271473,3.293956,2.383736,3.104982
3.271558,3.293921,2.386154,3.101758
3.271684,3.293946,2.394212,3.105788
3.271332,3.293664,2.382124,3.095311
3.271468,3.293845,2.385348,3.096923
3.271483,3.293895,2.383736,3.104176
3.271538,3.293870,2.388572,3.095311
3.271301,3.293785,2.384542,3.098535
3.271528,3.293850,2.388572,3.104176
3.271508,3.293916,2.387766,3.098535
3.271468,3.293870,2.400659,3.103370
3.271503,3.293855,2.388572,3.104176
3.271674,3.293946,2.396630,3.106593
3.271835,3.294112,2.401465,3.114652
3.271896,3.294006,2.397436,3.105788
3.272148,3.294122,2.408718,3.108205
3.272364,3.294178,2.411941,3.109011
3.272586,3.294429,2.423223,3.117876
3.272505,3.294082,2.411941,3.109011
3.272601,3.294283,2.421612,3.115458
3.272687,3.294339,2.424029,3.117876
3.272918,3.294389,2.432088,3.117069
3.272747,3.294298,2.424835,3.113040
3.272898,3.294389,2.434505,3.121905
3.272918,3.294414,2.436117,3.118681
3.273009,3.294308,2.437729,3.117876
3.272797,3.294319,2.431282,3.115458
3.272999,3.294419,2.427253,3.112234
3.272969,3.294480,2.432894,3.125934
3.272767,3.294278,2.434505,3.113846
3.272823,3.294444,2.428864,3.112234
3.272833,3.294329,2.428864,3.115458
3.272938,3.294429,2.432088,3.121905
3.272566,3.294142,2.424835,3.113846
3.272576,3.294278,2.421612,3.111428
3.272561,3.294238,2.422418,3.115458
3.272566,3.294122,2.424835,3.108205
3.272228,3.294021,2.417583,3.106593
3.272379,3.294047,2.415165,3.109011
3.272253,3.294122,2.414359,3.107399
3.272223,3.294006,2.420806,3.113040
3.272082,3.293971,2.405494,3.106593
3.272178,3.294102,2.404689,3.106593
3.272107,3.294243,2.407106,3.106593
3.271966,3.293956,2.404689,3.106593
3.271921,3.293941,2.398242,3.104176
3.271825,3.293981,2.399048,3.107399
3.271986,3.294062,2.398242,3.110623
3.271725,3.293805,2.386154,3.101758
3.271639,3.293941,2.391795,3.104982
3.271644,3.293951,2.392601,3.105788
3.271775,3.293906,2.393407,3.108205
3.271392,3.293795,2.386960,3.096117
3.271614,3.293885,2.388572,3.104176
3.271402,3.293895,2.385348,3.103370
3.271558,3.293815,2.390183,3.104176
3.271296,3.293855,2.382931,3.102564
3.271407,3.293901,2.382931,3.100952
3.271377,3.293951,2.383736,3.104176
3.271211,3.293770,2.372454,3.097729
3.271125,3.293739,2.376483,3.098535
3.271226,3.293810,2.379707,3.100952
3.271201,3.293900,2.374066,3.102564
3.271060,3.293603,2.371648,3.096923
3.271019,3.293775,2.373260,3.098535
3.271045,3.293765,2.374066,3.099341
3.271201,3.293800,2.376483,3.093700
3.270899,3.293538,2.371648,3.092894
3.270994,3.293729,2.371648,3.100952
3.270974,3.293765,2.371648,3.094506
3.270959,3.293593,2.371648,3.099341
3.270712,3.293629,2.364396,3.092894
3.270894,3.293734,2.372454,3.093700
3.270894,3.293709,2.370037,3.093700
3.270899,3.293583,2.372454,3.092088
3.270737,3.293603,2.366007,3.093700
3.270793,3.293654,2.368425,3.093700
3.270843,3.293770,2.367619,3.098535
3.270773,3.293558,2.363590,3.093700
3.270753,3.293593,2.361978,3.095311
3.270737,3.293639,2.370037,3.095311
3.270878,3.293659,2.370842,3.101758
3.270722,3.293498,2.357949,3.091282
3.270788,3.293634,2.364396,3.094506
3.270788,3.293654,2.359560,3.093700
3.270838,3.293427,2.372454,3.093700
3.270581,3.293543,2.359560,3.089670
3.270662,3.293583,2.360366,3.094506
3.270672,3.293618,2.358755,3.092894
3.270672,3.293543,2.359560,3.086447
3.270601,3.293528,2.358755,3.089670
3.270632,3.293603,2.358755,3.093700
3.270667,3.293679,2.362784,3.097729
3.270611,3.293472,2.358755,3.091282
3.270576,3.293629,2.358755,3.093700
3.270617,3.293583,2.361172,3.089670
3.270737,3.293654,2.367619,3.092088
3.270576,3.293422,2.357949,3.088865
3.270596,3.293593,2.358755,3.091282
3.270586,3.293573,2.359560,3.092894
3.270617,3.293639,2.360366,3.092088
3.270430,3.293482,2.353920,3.088865
3.270596,3.293548,2.357949,3.092894
3.270561,3.293573,2.359560,3.089670
3.270496,3.293462,2.358755,3.089670
3.270405,3.293518,2.357143,3.089670
3.270506,3.293558,2.358755,3.093700
3.270526,3.293674,2.358755,3.099341
3.270450,3.293432,2.355531,3.087253
3.270415,3.293528,2.354725,3.088059
3.270445,3.293548,2.356337,3.092894
3.270606,3.293493,2.356337,3.093700
3.270365,3.293336,2.349084,3.084835
3.270410,3.293573,2.353114,3.092894
3.270491,3.293533,2.353114,3.088865
3.270491,3.293472,2.355531,3.089670
3.270209,3.293362,2.349084,3.089670
3.270390,3.293487,2.356337,3.093700
3.270365,3.293487,2.353920,3.089670
3.270350,3.293402,2.350696,3.087253
3.270173,3.293417,2.345861,3.088059
3.270365,3.293467,2.343443,3.088059
3.270350,3.293639,2.350696,3.090476
3.270209,3.293452,2.341026,3.088865
3.270274,3.293447,2.348278,3.086447
3.270279,3.293513,2.343443,3.092088
3.270405,3.293558,2.349890,3.092088
3.270143,3.293301,2.346667,3.082417
3.270178,3.293498,2.345055,3.092894
3.270239,3.293508,2.349890,3.089670
3.270329,3.293447,2.355531,3.085641
3.270017,3.293301,2.338608,3.082417
3.270153,3.293341,2.341026,3.084835
3.270052,3.293442,2.341026,3.088059
3.270047,3.293336,2.347472,3.085641
3.269957,3.293306,2.334579,3.084029
3.270108,3.293452,2.341831,3.084029
3.270057,3.293503,2.345055,3.088865
3.269972,3.293326,2.334579,3.084835
3.269967,3.293341,2.336996,3.082417
3.270148,3.293412,2.342637,3.090476
3.270128,3.293503,2.340220,3.088865
3.269932,3.293246,2.337802,3.083223
3.269952,3.293377,2.338608,3.085641
3.269937,3.293372,2.335385,3.084835
3.270143,3.293407,2.341831,3.092894
3.269861,3.293210,2.336996,3.080806
3.270047,3.293346,2.337802,3.085641
3.269906,3.293417,2.336996,3.087253
3.270027,3.293221,2.338608,3.080000
3.269801,3.293266,2.332161,3.082417
3.269952,3.293392,2.336190,3.088059
3.269926,3.293467,2.336996,3.088059
3.269962,3.293281,2.333773,3.084029
3.269841,3.293357,2.332967,3.083223
3.269962,3.293452,2.336996,3.084835
3.270017,3.293482,2.337802,3.091282
3.269876,3.293271,2.335385,3.080806
3.269871,3.293472,2.334579,3.083223
3.269937,3.293412,2.337802,3.085641
3.270068,3.293311,2.345055,3.089670
3.269841,3.293236,2.333773,3.080806
3.269866,3.293387,2.332967,3.086447
3.269886,3.293341,2.333773,3.085641
3.269906,3.293241,2.344249,3.088865
3.269790,3.293261,2.332967,3.080806
3.269821,3.293382,2.332967,3.086447
3.269881,3.293422,2.337802,3.084835
3.269765,3.293246,2.332161,3.080806
3.269730,3.293301,2.332161,3.085641
3.269916,3.293286,2.333773,3.082417
3.269816,3.293417,2.332967,3.089670
3.269760,3.293266,2.332967,3.083223
3.269760,3.293417,2.332161,3.082417
3.269780,3.293382,2.332967,3.084835
3.269866,3.293336,2.340220,3.080806
3.269785,3.293185,2.328132,3.080000
3.269851,3.293367,2.332967,3.081612
3.269775,3.293346,2.333773,3.087253
3.269896,3.293190,2.345055,3.080806
3.269725,3.293246,2.333773,3.080806
3.269881,3.293387,2.332967,3.080806
3.269780,3.293372,2.334579,3.084835
3.269886,3.293281,2.337802,3.080806
3.269750,3.293281,2.332161,3.081612
3.269790,3.293352,2.333773,3.085641
3.269796,3.293487,2.332967,3.089670
3.269660,3.293195,2.323297,3.080806
3.269715,3.293331,2.332161,3.080806
3.269740,3.293241,2.331355,3.081612
3.269866,3.293417,2.340220,3.091282
3.269765,3.293150,2.332161,3.080806
3.269821,3.293301,2.331355,3.084029
3.269735,3.293316,2.328938,3.080806
3.269785,3.293226,2.332967,3.091282
3.269644,3.293276,2.332967,3.080806
3.269881,3.293377,2.337802,3.088059
3.269916,3.293387,2.335385,3.085641
3.269977,3.293387,2.337802,3.084029
3.269977,3.293407,2.338608,3.089670
3.270153,3.293477,2.345861,3.087253
3.270329,3.293689,2.347472,3.096117
3.270274,3.293477,2.343443,3.089670
3.270425,3.293593,2.350696,3.093700
3.270571,3.293654,2.358755,3.092894
3.270939,3.293840,2.366007,3.096117
3.270868,3.293583,2.366813,3.094506
3.271029,3.293860,2.371648,3.099341
3.271226,3.293875,2.378901,3.104982
3.271432,3.293941,2.386960,3.108205
3.271327,3.293890,2.386154,3.102564
3.271594,3.293981,2.389377,3.106593
3.271629,3.293956,2.391795,3.105788
3.271735,3.293921,2.384542,3.108205
3.271483,3.293906,2.384542,3.101758
3.271720,3.293956,2.393407,3.106593
3.271709,3.294102,2.395018,3.108205
3.271624,3.293921,2.386960,3.104176
3.271604,3.293931,2.389377,3.106593
3.271614,3.293956,2.390183,3.104982
3.271704,3.294031,2.390183,3.105788
3.271513,3.293815,2.386154,3.100952
3.271493,3.293931,2.388572,3.104176
3.271483,3.293926,2.388572,3.105788
3.271493,3.293931,2.386960,3.104176
3.271337,3.293785,2.381319,3.098535
3.271362,3.293921,2.384542,3.103370
3.271387,3.293855,2.383736,3.104176
3.271382,3.293714,2.384542,3.096923
3.271065,3.293795,2.371648,3.097729
3.271176,3.293870,2.376483,3.096923
3.271186,3.293916,2.378901,3.100952
3.271014,3.293679,2.371648,3.096117
3.270994,3.293719,2.371648,3.100952
3.271045,3.293759,2.373260,3.099341
3.271060,3.293885,2.371648,3.100952
3.270924,3.293613,2.370842,3.095311
3.270924,3.293770,2.366007,3.100952
3.270989,3.293724,2.368425,3.097729
3.270979,3.293830,2.375678,3.097729
3.270793,3.293513,2.366007,3.090476
3.270833,3.293618,2.370037,3.096117
3.270878,3.293644,2.370842,3.095311
3.270828,3.293548,2.370842,3.096117
3.270586,3.293573,2.358755,3.091282
3.270632,3.293608,2.357949,3.096923
3.270667,3.293679,2.361978,3.093700
3.270536,3.293543,2.359560,3.092894
3.270586,3.293558,2.357949,3.092088
3.270576,3.293598,2.358755,3.093700
3.270601,3.293674,2.358755,3.098535
3.270556,3.293528,2.356337,3.092894
3.270546,3.293634,2.357143,3.093700
3.270561,3.293553,2.356337,3.093700
3.270622,3.293649,2.358755,3.096117
3.270450,3.293402,2.349890,3.088059
3.270551,3.293563,2.356337,3.095311
3.270546,3.293558,2.356337,3.092088
3.270546,3.293649,2.358755,3.093700
3.270294,3.293457,2.353114,3.092894
3.270516,3.293588,2.358755,3.092088
3.270491,3.293583,2.353114,3.093700
3.270486,3.293533,2.358755,3.092088
3.270319,3.293498,2.351502,3.088865
3.270481,3.293603,2.356337,3.092088
3.270425,3.293704,2.354725,3.096117
3.270339,3.293442,2.349890,3.093700
3.270334,3.293578,2.348278,3.092088
3.270420,3.293583,2.357143,3.093700
3.270581,3.293568,2.358755,3.100952
3.270355,3.293427,2.349890,3.086447
3.270475,3.293608,2.353114,3.093700
3.270486,3.293568,2.351502,3.089670
3.270571,3.293467,2.357949,3.092088
3.270324,3.293482,2.349890,3.088865
3.270491,3.293568,2.356337,3.093700
3.270496,3.293573,2.356337,3.092088
3.270435,3.293503,2.357949,3.089670
3.270279,3.293538,2.349084,3.092894
3.270370,3.293538,2.353920,3.093700
3.270450,3.293704,2.351502,3.099341
3.270309,3.293477,2.353920,3.091282
3.270279,3.293558,2.350696,3.089670
3.270425,3.293563,2.349890,3.090476
3.270556,3.293623,2.353114,3.093700
3.270279,3.293432,2.349890,3.085641
3.270350,3.293639,2.349890,3.090476
3.270370,3.293553,2.350696,3.093700
3.270481,3.293634,2.357949,3.088059
3.270224,3.293493,2.347472,3.084835
3.270400,3.293503,2.349890,3.092894
3.270304,3.293548,2.353920,3.092088
3.270314,3.293482,2.357143,3.086447
3.270158,3.293472,2.344249,3.089670
3.270304,3.293573,2.348278,3.091282
3.270264,3.293674,2.348278,3.092088
3.270143,3.293402,2.345055,3.084835
3.270204,3.293508,2.346667,3.089670
3.270244,3.293548,2.347472,3.093700
3.270375,3.293603,2.346667,3.094506
3.270108,3.293296,2.345055,3.088865
3.270158,3.293553,2.344249,3.088865
3.270188,3.293543,2.344249,3.091282
3.270289,3.293457,2.350696,3.088865
3.270057,3.293336,2.344249,3.083223
3.270158,3.293518,2.347472,3.093700
3.270219,3.293503,2.341831,3.092088
3.270204,3.293422,2.341026,3.088059
3.269932,3.293432,2.336996,3.086447
3.270052,3.293472,2.341026,3.088059
3.270143,3.293573,2.341831,3.088865
3.269937,3.293427,2.345055,3.088059
3.269937,3.293397,2.337802,3.088865
3.270113,3.293462,2.336996,3.090476
3.270078,3.293538,2.341026,3.092894
3.269972,3.293296,2.341831,3.087253
3.269932,3.293528,2.341026,3.092894
3.269957,3.293487,2.341026,3.091282
3.270133,3.293477,2.343443,3.092894
3.269856,3.293296,2.336996,3.084029
3.270052,3.293442,2.344249,3.084835
3.269952,3.293457,2.341026,3.086447
3.270083,3.293326,2.342637,3.086447
3.269765,3.293377,2.332967,3.083223
3.269952,3.293387,2.336996,3.083223
3.269911,3.293508,2.337802,3.089670
3.269906,3.293372,2.339414,3.084835
3.269770,3.293362,2.332967,3.088865
3.269836,3.293407,2.336996,3.091282
3.269987,3.293543,2.332967,3.092894
3.269876,3.293336,2.336996,3.086447
3.269851,3.293387,2.337802,3.091282
3.269962,3.293417,2.334579,3.091282
3.269972,3.293518,2.339414,3.092088
3.269796,3.293190,2.330549,3.080806
3.269871,3.293432,2.332967,3.084029
3.269826,3.293397,2.332967,3.086447
3.269821,3.293442,2.332967,3.088059
3.269710,3.293261,2.332967,3.083223
3.269770,3.293372,2.335385,3.089670
3.269821,3.293382,2.333773,3.085641
3.269715,3.293336,2.336996,3.081612
3.269750,3.293321,2.332161,3.081612
3.269811,3.293417,2.332967,3.080806
3.269801,3.293518,2.332967,3.089670
3.269720,3.293296,2.332161,3.084835
3.269735,3.293402,2.332161,3.085641
3.269775,3.293377,2.332967,3.085641
3.269836,3.293457,2.336190,3.080806
3.269710,3.293200,2.324103,3.080806
3.269796,3.293346,2.331355,3.088865
3.269725,3.293341,2.328938,3.085641
3.269755,3.293306,2.333773,3.076777
3.269574,3.293256,2.324908,3.085641
3.269725,3.293367,2.330549,3.086447
3.269755,3.293362,2.328938,3.085641
3.269730,3.293301,2.331355,3.080806
3.269644,3.293311,2.330549,3.084029
3.269760,3.293392,2.331355,3.085641
3.269745,3.293523,2.332967,3.093700
3.269614,3.293311,2.327326,3.084835
3.269670,3.293387,2.330549,3.080806
3.269750,3.293417,2.328132,3.083223
3.269790,3.293407,2.336190,3.088059
3.269629,3.293155,2.327326,3.080806
3.269639,3.293286,2.327326,3.088059
3.269614,3.293412,2.328132,3.088059
3.269715,3.293231,2.332967,3.088059
3.269508,3.293195,2.325714,3.080000
3.269634,3.293357,2.328938,3.088865
3.269609,3.293362,2.328132,3.082417
3.269498,3.293236,2.327326,3.080806
3.269423,3.293236,2.320879,3.080806
3.269604,3.293326,2.328938,3.085641
3.269599,3.293482,2.328132,3.091282
3.269483,3.293256,2.317656,3.084029
3.269453,3.293281,2.325714,3.081612
3.269554,3.293246,2.322491,3.080806
3.269680,3.293427,2.328132,3.084835
3.269438,3.293160,2.324908,3.080806
3.269493,3.293296,2.327326,3.080806
3.269579,3.293301,2.325714,3.084835
3.269755,3.293306,2.332161,3.084029
3.269508,3.293205,2.322491,3.080000
3.269619,3.293402,2.328938,3.084835
3.269735,3.293402,2.328938,3.086447
3.269710,3.293261,2.328938,3.082417
3.269619,3.293357,2.328132,3.080806
3.269841,3.293422,2.332161,3.089670
3.269861,3.293588,2.332967,3.090476
3.269937,3.293407,2.337802,3.091282
3.270052,3.293472,2.341831,3.090476
3.270203,3.293543,2.349890,3.093700
3.270561,3.293770,2.353114,3.096923
3.270480,3.293558,2.357143,3.095311
3.270657,3.293855,2.358755,3.096117
3.270904,3.293865,2.366813,3.102564
3.271135,3.293951,2.376483,3.106593
3.271009,3.293759,2.370037,3.098535
3.271160,3.293890,2.382124,3.106593
3.271317,3.293956,2.382124,3.104176
3.271367,3.293835,2.384542,3.101758
3.271291,3.293916,2.378901,3.103370
3.271478,3.293976,2.386154,3.105788
3.271412,3.294097,2.383736,3.106593
3.271322,3.293936,2.390183,3.103370
3.271357,3.293931,2.384542,3.104176
3.271407,3.293931,2.383736,3.106593
3.271397,3.294047,2.384542,3.106593
3.271306,3.293835,2.382931,3.101758
3.271327,3.293895,2.379707,3.105788
3.271256,3.293911,2.380513,3.104176
3.271347,3.293931,2.384542,3.108205
3.271090,3.293780,2.372454,3.097729
3.271130,3.293870,2.378901,3.105788
3.271055,3.293865,2.370842,3.104982
3.271035,3.293679,2.377289,3.096117
3.270828,3.293754,2.366813,3.097729
3.270974,3.293800,2.374872,3.101758
3.270964,3.293835,2.366813,3.097729
3.270858,3.293704,2.368425,3.098535
3.270732,3.293689,2.361172,3.093700
3.270778,3.293800,2.361978,3.097729
3.270752,3.293830,2.364396,3.100147
3.270611,3.293623,2.361978,3.092088
3.270637,3.293749,2.361172,3.098535
3.270621,3.293739,2.362784,3.093700
3.270747,3.293639,2.364396,3.100952
3.270506,3.293523,2.355531,3.092894
3.270571,3.293714,2.357143,3.101758
3.270601,3.293618,2.358755,3.093700
3.270591,3.293558,2.359560,3.088059
3.270365,3.293558,2.349084,3.092088
3.270390,3.293613,2.353114,3.091282
3.270455,3.293629,2.351502,3.093700
3.270475,3.293548,2.354725,3.092088
3.270198,3.293548,2.348278,3.092088
3.270400,3.293573,2.354725,3.093700
3.270309,3.293719,2.351502,3.097729
3.270208,3.293508,2.343443,3.092894
3.270188,3.293548,2.344249,3.089670
3.270254,3.293578,2.344249,3.092894
3.270375,3.293644,2.354725,3.090476
3.270098,3.293407,2.344249,3.085641
3.270168,3.293583,2.341831,3.092894
3.270143,3.293558,2.338608,3.093700
3.270324,3.293553,2.348278,3.089670
3.269977,3.293482,2.338608,3.084029
3.270083,3.293578,2.346667,3.085641
3.270113,3.293503,2.345055,3.088059
3.270078,3.293477,2.336996,3.086447
3.269972,3.293477,2.336996,3.091282
3.270138,3.293513,2.340220,3.089670
3.270052,3.293664,2.340220,3.095311
3.269947,3.293482,2.340220,3.088059
3.269967,3.293513,2.341026,3.089670
3.270083,3.293518,2.344249,3.093700
3.270239,3.293588,2.345055,3.093700
3.270037,3.293372,2.340220,3.088059
3.270007,3.293487,2.340220,3.089670
3.269982,3.293498,2.341026,3.092894
3.270153,3.293412,2.342637,3.088059
3.269896,3.293387,2.336190,3.085641
3.270027,3.293538,2.341026,3.096117
3.270032,3.293523,2.337802,3.091282
3.270113,3.293427,2.341026,3.083223
3.269952,3.293477,2.337802,3.085641
3.270002,3.293518,2.335385,3.088059
3.270052,3.293644,2.341026,3.091282
3.269916,3.293447,2.335385,3.088059
3.269896,3.293503,2.337802,3.087253
3.269992,3.293523,2.341026,3.089670
3.270153,3.293548,2.341026,3.092088
3.269921,3.293362,2.337802,3.087253
3.269936,3.293508,2.336996,3.089670
3.269942,3.293513,2.336996,3.089670
3.270017,3.293493,2.338608,3.092894
3.269806,3.293417,2.341026,3.084835
3.269952,3.293568,2.341831,3.090476
3.269906,3.293457,2.334579,3.092894
3.269926,3.293462,2.343443,3.089670
3.269790,3.293377,2.331355,3.086447
3.269881,3.293503,2.337802,3.085641
3.269841,3.293613,2.335385,3.088865
3.269881,3.293422,2.332967,3.088865
3.269790,3.293427,2.332967,3.084835
3.269846,3.293442,2.333773,3.091282
3.269826,3.293553,2.332967,3.093700
3.269785,3.293382,2.331355,3.084029
3.269790,3.293427,2.332161,3.086447
3.269790,3.293462,2.332967,3.089670
3.269841,3.293563,2.333773,3.093700
3.269654,3.293241,2.327326,3.083223
3.269800,3.293357,2.332967,3.088865
3.269760,3.293387,2.330549,3.088059
3.269841,3.293397,2.334579,3.092894
3.269569,3.293367,2.324103,3.086447
3.269755,3.293447,2.328938,3.088865
3.269725,3.293513,2.332967,3.088059
3.269755,3.293407,2.334579,3.081612
3.269685,3.293402,2.330549,3.088059
3.269775,3.293422,2.332967,3.088865
3.269735,3.293518,2.332161,3.092894
3.269644,3.293271,2.329744,3.083223
3.269629,3.293477,2.327326,3.085641
3.269735,3.293402,2.331355,3.084029
3.269760,3.293482,2.332967,3.084835
3.269559,3.293221,2.328132,3.080000
3.269670,3.293372,2.328938,3.083223
3.269634,3.293392,2.320879,3.083223
3.269775,3.293210,2.327326,3.088865
3.269418,3.293261,2.320073,3.081612
3.269644,3.293357,2.327326,3.086447
3.269614,3.293392,2.327326,3.083223
3.269619,3.293341,2.332161,3.084029
3.269468,3.293291,2.324103,3.083223
3.269518,3.293341,2.322491,3.086447
3.269534,3.293538,2.328938,3.088865
3.269463,3.293256,2.320879,3.081612
3.269448,3.293397,2.325714,3.080806
3.269559,3.293301,2.321685,3.081612
3.269680,3.293412,2.329744,3.092894
3.269498,3.293180,2.319268,3.080806
3.269534,3.293372,2.320073,3.080806
3.269614,3.293367,2.324908,3.080806
3.269574,3.293301,2.332161,3.086447
3.269408,3.293231,2.320879,3.080806
3.269599,3.293407,2.324103,3.091282
3.269508,3.293382,2.324908,3.086447
3.269518,3.293221,2.332967,3.083223
3.269377,3.293256,2.320073,3.081612
3.269458,3.293271,2.320073,3.084029
3.269393,3.293462,2.320073,3.088059
3.269362,3.293226,2.320073,3.080806
3.269393,3.293362,2.320073,3.080806
3.269382,3.293321,2.320073,3.088059
3.269589,3.293351,2.324103,3.088865
3.269277,3.293155,2.319268,3.080806
3.269382,3.293311,2.319268,3.081612
3.269377,3.293326,2.320879,3.080806
3.269418,3.293326,2.324908,3.089670
3.269251,3.293165,2.317656,3.080806
3.269433,3.293321,2.320879,3.082417
3.269342,3.293301,2.317656,3.084835
3.269221,3.293241,2.320073,3.082417
3.269252,3.293236,2.315238,3.081612
3.269448,3.293326,2.322491,3.080806
3.269367,3.293498,2.320073,3.091282
3.269292,3.293195,2.317656,3.082417
3.269337,3.293281,2.316044,3.080806
3.269398,3.293296,2.317656,3.084835
3.269534,3.293493,2.320073,3.083223
3.269206,3.293150,2.316044,3.078388
3.269317,3.293377,2.316044,3.088865
3.269297,3.293326,2.317656,3.082417
3.269423,3.293266,2.320073,3.088059
3.269121,3.293145,2.317656,3.080806
3.269277,3.293256,2.316044,3.080806
3.269287,3.293261,2.317656,3.080806
3.269322,3.293195,2.317656,3.080806
3.269191,3.293266,2.314432,3.080806
3.269292,3.293321,2.315238,3.083223
3.269327,3.293467,2.318462,3.080806
3.269282,3.293221,2.316044,3.080806
3.269176,3.293221,2.310403,3.080806
3.269327,3.293281,2.316044,3.082417
3.269403,3.293392,2.315238,3.089670
3.269322,3.293160,2.316044,3.080806
3.269362,3.293321,2.316850,3.080806
3.269438,3.293316,2.320073,3.082417
3.269609,3.293387,2.328938,3.085641
3.269463,3.293266,2.321685,3.080806
3.269700,3.293377,2.331355,3.091282
3.269790,3.293467,2.332967,3.088865
3.269952,3.293513,2.340220,3.080806
3.269881,3.293482,2.334579,3.091282
3.270234,3.293639,2.348278,3.096923
3.270400,3.293830,2.351502,3.096923
3.270526,3.293699,2.359560,3.096117
3.270596,3.293795,2.358755,3.097729
3.270818,3.293860,2.362784,3.097729
3.270954,3.293966,2.367619,3.105788
3.270989,3.293759,2.371648,3.104176
3.271009,3.293951,2.373260,3.106593
3.271165,3.293956,2.382124,3.104176
3.271372,3.294042,2.384542,3.106593
3.271110,3.293845,2.379707,3.099341
3.271311,3.293986,2.382124,3.101758
3.271241,3.293946,2.380513,3.105788
3.271266,3.293865,2.374066,3.105788
3.271014,3.293835,2.371648,3.098535
3.271231,3.293941,2.374066,3.103370
3.271186,3.293951,2.379707,3.101758
3.271085,3.293840,2.378901,3.101758
3.271004,3.293840,2.371648,3.098535
3.271140,3.293880,2.371648,3.103370
3.271050,3.293931,2.374066,3.106593
3.270969,3.293815,2.370037,3.100952
3.270929,3.293875,2.371648,3.101758
3.270989,3.293880,2.369231,3.101758
3.271014,3.293845,2.375678,3.101758
3.270742,3.293644,2.362784,3.093700
3.270848,3.293810,2.362784,3.101758
3.270798,3.293810,2.361172,3.098535
3.270808,3.293729,2.370842,3.095311
3.270606,3.293664,2.361172,3.093700
3.270783,3.293724,2.369231,3.100952
3.270712,3.293765,2.361978,3.096923
3.270591,3.293649,2.359560,3.093700
3.270576,3.293709,2.359560,3.093700
3.270616,3.293709,2.362784,3.094506
3.270621,3.293845,2.358755,3.101758
3.270561,3.293593,2.358755,3.099341
3.270536,3.293765,2.357949,3.093700
3.270546,3.293739,2.357143,3.097729
3.270626,3.293724,2.361172,3.096923
3.270460,3.293518,2.353920,3.091282
3.270445,3.293669,2.357949,3.097729
3.270506,3.293623,2.354725,3.093700
3.270561,3.293498,2.356337,3.086447
3.270289,3.293563,2.351502,3.092088
3.270410,3.293699,2.353114,3.096923
3.270415,3.293588,2.353920,3.094506
3.270430,3.293588,2.345055,3.089670
3.270183,3.293563,2.346667,3.093700
3.270400,3.293618,2.356337,3.093700
3.270274,3.293775,2.349890,3.100952
3.270244,3.293578,2.345055,3.093700
3.270239,3.293578,2.346667,3.093700
3.270294,3.293623,2.350696,3.094506
3.270329,3.293639,2.346667,3.096117
3.270163,3.293417,2.341026,3.088865
3.270188,3.293639,2.348278,3.096117
3.270208,3.293608,2.345055,3.092894
3.270405,3.293608,2.349890,3.092088
3.270123,3.293462,2.345055,3.085641
3.270249,3.293548,2.354725,3.093700
3.270289,3.293598,2.347472,3.091282
3.270334,3.293563,2.358755,3.092894
3.270148,3.293553,2.342637,3.092894
3.270370,3.293568,2.354725,3.093700
3.270314,3.293775,2.351502,3.093700
3.270234,3.293543,2.349890,3.090476
3.270254,3.293613,2.347472,3.092894
3.270455,3.293694,2.353114,3.094506
3.270626,3.293780,2.358755,3.099341
3.270460,3.293528,2.357143,3.088059
3.270440,3.293613,2.354725,3.096117
3.270485,3.293674,2.358755,3.096117
3.270596,3.293719,2.361172,3.093700
3.270375,3.293503,2.348278,3.091282
3.270551,3.293714,2.358755,3.096117
3.270632,3.293689,2.356337,3.095311
3.270621,3.293608,2.357949,3.089670
3.270485,3.293618,2.353114,3.095311
3.270632,3.293709,2.356337,3.094506
3.270571,3.293840,2.356337,3.099341
3.270526,3.293639,2.353920,3.092088
3.270521,3.293603,2.354725,3.096117
3.270596,3.293659,2.357949,3.094506
3.270616,3.293845,2.358755,3.098535
3.270531,3.293563,2.353920,3.091282
3.270531,3.293734,2.356337,3.102564
3.270561,3.293654,2.354725,3.093700
3.270611,3.293775,2.361172,3.100952
3.270480,3.293548,2.353920,3.090476
3.270561,3.293704,2.360366,3.097729
3.270586,3.293644,2.356337,3.097729
3.270637,3.293634,2.359560,3.098535
3.270435,3.293608,2.353920,3.093700
3.270606,3.293634,2.366007,3.096117
3.270586,3.293765,2.358755,3.095311
3.270470,3.293568,2.359560,3.093700
3.270460,3.293623,2.354725,3.093700
3.270586,3.293568,2.356337,3.094506
3.270566,3.293790,2.359560,3.098535
3.270506,3.293533,2.348278,3.091282
3.270511,3.293664,2.357949,3.094506
3.270521,3.293729,2.357949,3.099341
3.270647,3.293659,2.361172,3.098535
3.270485,3.293518,2.357143,3.091282
3.270566,3.293684,2.358755,3.093700
3.270516,3.293659,2.358755,3.095311
3.270561,3.293593,2.357949,3.088059
3.270349,3.293553,2.354725,3.091282
3.270541,3.293639,2.354725,3.092088
3.270561,3.293704,2.353920,3.094506
3.270354,3.293603,2.358755,3.092894
3.270415,3.293618,2.349890,3.093700
3.270546,3.293714,2.357949,3.096117
3.270581,3.293815,2.361172,3.100952
3.270516,3.293558,2.353920,3.097729
3.270490,3.293775,2.357143,3.095311
3.270551,3.293679,2.358755,3.096117
3.270662,3.293734,2.364396,3.098535
3.270511,3.293528,2.356337,3.092088
3.270566,3.293684,2.357143,3.093700
3.270601,3.293639,2.358755,3.096117
3.270581,3.293664,2.364396,3.092894
3.270420,3.293568,2.353920,3.091282
3.270531,3.293659,2.358755,3.096117
3.270571,3.293659,2.355531,3.092894
3.270591,3.293598,2.360366,3.092894
3.270485,3.293608,2.353114,3.095311
3.270581,3.293649,2.354725,3.093700
3.270551,3.293800,2.358755,3.102564
3.270536,3.293573,2.354725,3.092088
3.270470,3.293689,2.357949,3.092894
3.270531,3.293664,2.358755,3.096117
3.270717,3.293845,2.358755,3.096923
3.270455,3.293482,2.357949,3.092088
3.270506,3.293608,2.357949,3.093700
3.270576,3.293588,2.358755,3.096923
3.270596,3.293699,2.358755,3.096117
3.270380,3.293543,2.353920,3.090476
3.270501,3.293654,2.356337,3.091282
3.270566,3.293644,2.354725,3.093700
3.270566,3.293583,2.358755,3.092088
3.270375,3.293578,2.353114,3.093700
3.270541,3.293654,2.349890,3.093700
3.270506,3.293810,2.358755,3.098535
3.270490,3.293578,2.353920,3.092894
3.270470,3.293634,2.354725,3.092088
3.270531,3.293618,2.357949,3.094506
3.270631,3.293684,2.356337,3.102564
3.270400,3.293493,2.353114,3.089670
3.270435,3.293639,2.353114,3.097729
3.270480,3.293623,2.357949,3.096117
3.270576,3.293644,2.358755,3.101758
3.270319,3.293553,2.350696,3.092088
3.270526,3.293623,2.355531,3.095311
3.270415,3.293679,2.354725,3.093700
3.270536,3.293608,2.359560,3.093700
3.270365,3.293593,2.350696,3.093700
3.270546,3.293664,2.358755,3.093700
3.270485,3.293785,2.354725,3.096117
3.270314,3.293573,2.357143,3.092894
3.270395,3.293588,2.350696,3.093700
3.270430,3.293588,2.355531,3.093700
3.270551,3.293659,2.357949,3.095311
3.270344,3.293518,2.351502,3.092088
3.270360,3.293634,2.352308,3.094506
3.270365,3.293563,2.350696,3.093700
3.270576,3.293689,2.357949,3.096117
3.270244,3.293457,2.349084,3.092088
3.270480,3.293538,2.356337,3.093700
3.270485,3.293639,2.353114,3.092894
3.270556,3.293573,2.357143,3.093700
3.270390,3.293568,2.348278,3.089670
3.270606,3.293684,2.360366,3.094506
3.270667,3.293865,2.359560,3.097729
3.270813,3.293694,2.359560,3.097729
3.270863,3.293800,2.366813,3.098535
3.271075,3.293936,2.374066,3.106593
3.271347,3.294057,2.383736,3.107399
3.271432,3.293946,2.384542,3.105788
3.271684,3.294208,2.393407,3.113846
3.272012,3.294283,2.402271,3.113846
3.272379,3.294409,2.417583,3.121099
3.272530,3.294213,2.421612,3.117069
3.272787,3.294510,2.433700,3.128352
3.272963,3.294606,2.436117,3.121905
3.273235,3.294485,2.446594,3.122711
3.273140,3.294585,2.438535,3.123517
3.273553,3.294691,2.453040,3.129963
3.273558,3.294767,2.453846,3.131575
3.273613,3.294711,2.451429,3.130769
3.273543,3.294681,2.451429,3.130769
3.273754,3.294767,2.461099,3.129963
3.273774,3.294847,2.461099,3.132381
3.273674,3.294676,2.457875,3.132381
3.273664,3.294767,2.459487,3.132381
3.273754,3.294742,2.458681,3.127546
3.273825,3.294782,2.462711,3.131575
3.273548,3.294550,2.449817,3.124322
3.273618,3.294716,2.451429,3.130769
3.273543,3.294676,2.457875,3.129158
3.273523,3.294681,2.461905,3.131575
3.273271,3.294500,2.441758,3.121905
3.273417,3.294626,2.449817,3.122711
3.273371,3.294636,2.453040,3.128352
3.273215,3.294525,2.449011,3.121905
3.273104,3.294500,2.440146,3.121099
3.273165,3.294540,2.440952,3.126740
3.273044,3.294676,2.436923,3.129963
3.272958,3.294399,2.436117,3.117069
3.272923,3.294470,2.430476,3.119487
3.272923,3.294455,2.433700,3.119487
3.273029,3.294525,2.438535,3.124322
3.272853,3.294258,2.428059,3.113846
3.272873,3.294460,2.428864,3.120293
3.272712,3.294409,2.423223,3.117876
3.272742,3.294334,2.427253,3.121905
3.272495,3.294208,2.419194,3.111428
3.272596,3.294298,2.420806,3.113846
3.272596,3.294334,2.423223,3.117876
3.272480,3.294228,2.419194,3.115458
3.272258,3.294198,2.412747,3.112234
3.272384,3.294233,2.411135,3.114652
3.272344,3.294369,2.417583,3.119487
3.272228,3.294011,2.410330,3.106593
3.272183,3.294167,2.409524,3.112234
3.272198,3.294183,2.410330,3.109011
3.272304,3.294298,2.411941,3.116264
3.272047,3.293991,2.407912,3.108205
3.272032,3.294092,2.407912,3.108205
3.272067,3.294072,2.400659,3.111428
3.272153,3.294031,2.407912,3.108205
3.271765,3.293951,2.395824,3.104982
3.271946,3.294057,2.399853,3.107399
3.271886,3.294062,2.400659,3.106593
3.271850,3.293981,2.399048,3.106593
3.271714,3.293971,2.398242,3.106593
3.271765,3.294016,2.393407,3.106593
3.271825,3.294218,2.398242,3.108205
3.271775,3.293971,2.395824,3.107399
3.271750,3.293946,2.395018,3.104176
3.271865,3.294047,2.399853,3.107399
3.271976,3.294052,2.398242,3.111428
3.271750,3.293941,2.394212,3.104982
3.271765,3.294001,2.401465,3.107399
3.271780,3.294031,2.399048,3.106593
3.271911,3.294006,2.403883,3.109011
3.271714,3.293961,2.396630,3.106593
3.271835,3.294011,2.398242,3.107399
3.271805,3.293981,2.395018,3.106593
3.271800,3.293991,2.403077,3.106593
3.271629,3.293966,2.395018,3.106593
3.271765,3.293996,2.395018,3.106593
3.271785,3.294193,2.397436,3.108205
3.271714,3.294001,2.398242,3.106593
3.271674,3.293976,2.394212,3.106593
3.271780,3.293986,2.397436,3.110623
3.271850,3.294127,2.399048,3.112234
3.271740,3.293906,2.394212,3.106593
3.271765,3.294097,2.396630,3.109011
3.271830,3.294062,2.397436,3.106593
3.271860,3.294102,2.399853,3.112234
3.271644,3.293900,2.395018,3.099341
3.271815,3.294006,2.395018,3.107399
3.271684,3.294026,2.394212,3.108205
3.271795,3.293921,2.395824,3.104982
3.271523,3.293951,2.386960,3.104982
3.271583,3.293981,2.393407,3.106593
3.271634,3.294036,2.392601,3.106593
3.271518,3.293951,2.397436,3.106593
3.271503,3.293941,2.386960,3.102564
3.271523,3.293966,2.392601,3.106593
3.271614,3.294031,2.392601,3.109011
3.271463,3.293880,2.384542,3.104176
3.271437,3.293941,2.384542,3.106593
3.271503,3.293961,2.386154,3.105788
3.271513,3.293976,2.386960,3.110623
3.271342,3.293825,2.384542,3.096923
3.271397,3.293961,2.384542,3.100952
3.271362,3.293941,2.385348,3.104176
3.271357,3.293840,2.383736,3.104176
3.271196,3.293860,2.377289,3.101758
3.271362,3.293931,2.383736,3.105788
3.271256,3.293926,2.378901,3.106593
3.271241,3.293880,2.378901,3.100952
3.271110,3.293890,2.379707,3.099341
3.271241,3.293875,2.378901,3.101758
3.271226,3.293961,2.375678,3.106593
3.271085,3.293850,2.371648,3.104176
3.271085,3.293916,2.374872,3.095311
3.271070,3.293835,2.374066,3.102564
3.271311,3.293946,2.382931,3.103370
3.271034,3.293694,2.371648,3.095311
3.271075,3.293900,2.373260,3.102564
3.271070,3.293825,2.377289,3.098535
3.271135,3.293689,2.374066,3.101758
3.270914,3.293754,2.367619,3.097729
3.271045,3.293820,2.373260,3.100147
3.271009,3.293810,2.371648,3.100147
3.271045,3.293754,2.372454,3.096923
3.270873,3.293724,2.365201,3.096923
3.270914,3.293815,2.367619,3.102564
3.270964,3.293946,2.369231,3.106593
3.270909,3.293739,2.370842,3.099341
3.270833,3.293820,2.363590,3.098535
3.270934,3.293820,2.369231,3.101758
3.271060,3.293890,2.372454,3.102564
3.270803,3.293583,2.366007,3.094506
3.270883,3.293775,2.366813,3.093700
3.270914,3.293810,2.366813,3.096923
3.270944,3.293739,2.370842,3.098535
3.270632,3.293649,2.363590,3.092088
3.270898,3.293780,2.369231,3.099341
3.270898,3.293739,2.366813,3.097729
3.270914,3.293689,2.364396,3.096117
3.270682,3.293644,2.358755,3.095311
3.270848,3.293759,2.369231,3.098535
3.270773,3.293936,2.361172,3.105788
3.270647,3.293613,2.358755,3.093700
3.270707,3.293704,2.358755,3.092894
3.270762,3.293704,2.361172,3.101758
3.270979,3.293795,2.366007,3.100147
3.270647,3.293548,2.359560,3.092894
3.270687,3.293639,2.360366,3.097729
3.270692,3.293694,2.363590,3.096117
3.270783,3.293578,2.366007,3.095311
3.270576,3.293553,2.357949,3.093700
3.270682,3.293664,2.367619,3.097729
3.270682,3.293709,2.359560,3.093700
3.270626,3.293629,2.368425,3.094506
3.270490,3.293639,2.355531,3.095311
3.270586,3.293739,2.358755,3.097729
3.270616,3.293865,2.358755,3.097729
3.270571,3.293593,2.362784,3.093700
3.270541,3.293644,2.355531,3.093700
3.270586,3.293689,2.358755,3.096117
3.270717,3.293810,2.361978,3.099341
3.270551,3.293543,2.357949,3.093700
3.270561,3.293724,2.358755,3.099341
3.270591,3.293674,2.358755,3.092894
3.270702,3.293654,2.358755,3.097729
3.270455,3.293528,2.357143,3.090476
3.270581,3.293724,2.361172,3.093700
3.270561,3.293679,2.358755,3.095311
3.270551,3.293538,2.358755,3.094506
3.270385,3.293563,2.353114,3.091282
3.270551,3.293634,2.357949,3.097729
3.270506,3.293765,2.357143,3.097729
3.270541,3.293618,2.357949,3.093700
3.270516,3.293613,2.358755,3.096117
3.270541,3.293629,2.356337,3.097729
3.270581,3.293830,2.357949,3.098535
3.270496,3.293523,2.357949,3.093700
3.270485,3.293694,2.356337,3.093700
3.270541,3.293694,2.358755,3.093700
3.270647,3.293719,2.361172,3.104176
3.270561,3.293553,2.354725,3.091282
3.270752,3.293810,2.368425,3.096117
3.270838,3.293785,2.366007,3.095311
3.270984,3.293724,2.369231,3.094506
3.270934,3.293815,2.371648,3.096117
3.271337,3.293966,2.378901,3.106593
3.271468,3.294102,2.386154,3.106593
3.271644,3.293991,2.388572,3.106593
3.271770,3.294127,2.395824,3.107399
3.272143,3.294213,2.403077,3.116264
3.272319,3.294490,2.412747,3.123517
3.272440,3.294283,2.415165,3.113846
3.272596,3.294449,2.423223,3.121099
3.272873,3.294465,2.428059,3.120293
3.273059,3.294646,2.436117,3.121905
3.273029,3.294384,2.428864,3.118681
3.273205,3.294585,2.440146,3.125128
3.273190,3.294626,2.444982,3.126740
3.273241,3.294631,2.447399,3.123517
3.273094,3.294570,2.437729,3.122711
3.273276,3.294621,2.449817,3.125128
3.273195,3.294666,2.441758,3.126740
3.273120,3.294555,2.444982,3.121905
3.273034,3.294585,2.436117,3.120293
3.273200,3.294606,2.440952,3.120293
3.273099,3.294701,2.443370,3.129963
3.273009,3.294560,2.436117,3.121099
3.273014,3.294601,2.436117,3.120293
3.272999,3.294490,2.435311,3.121905
3.273069,3.294591,2.438535,3.121905
3.272797,3.294288,2.432088,3.115458
3.272838,3.294409,2.424835,3.121905
3.272752,3.294404,2.431282,3.116264
3.272913,3.294414,2.428864,3.124322
3.272490,3.294258,2.420806,3.114652
3.272561,3.294298,2.420806,3.119487
3.272586,3.294293,2.420806,3.116264
3.272586,3.294213,2.414359,3.112234
3.272344,3.294223,2.412747,3.113846
3.272500,3.294308,2.415165,3.114652
3.272374,3.294409,2.418388,3.121099
3.272258,3.294127,2.407912,3.113846
3.272218,3.294238,2.408718,3.111428
3.272248,3.294188,2.413553,3.110623
3.272404,3.294293,2.411941,3.118681
3.272143,3.293991,2.409524,3.107399
3.272132,3.294117,2.403883,3.110623
3.272143,3.294157,2.402271,3.108205
3.272087,3.294162,2.407912,3.114652
3.271825,3.293996,2.401465,3.105788
3.271996,3.294157,2.406300,3.106593
3.271926,3.294042,2.401465,3.108205
3.271876,3.293961,2.399853,3.105788
3.271684,3.293986,2.393407,3.104982
3.271719,3.293981,2.393407,3.106593
3.271805,3.294228,2.399853,3.112234
3.271674,3.293991,2.391795,3.106593
3.271583,3.293981,2.391795,3.104982
3.271573,3.293951,2.392601,3.106593
3.271735,3.294057,2.395018,3.106593
3.271473,3.293890,2.387766,3.100952
3.271518,3.293946,2.384542,3.106593
3.271503,3.293971,2.386960,3.106593
3.271644,3.293991,2.394212,3.109011
3.271412,3.293880,2.384542,3.102564
3.271468,3.293971,2.388572,3.109011
3.271407,3.293951,2.384542,3.105788
3.271553,3.293906,2.385348,3.103370
3.271306,3.293885,2.382124,3.101758
3.271342,3.293956,2.384542,3.102564
3.271392,3.294112,2.384542,3.106593
3.271306,3.293895,2.380513,3.101758
3.271337,3.293916,2.384542,3.104982
3.271432,3.293961,2.384542,3.106593
3.271498,3.294016,2.384542,3.108205
3.271332,3.293870,2.382931,3.104176
3.271332,3.294016,2.383736,3.104176
3.271432,3.293976,2.384542,3.100952
3.271523,3.293996,2.389377,3.102564
3.271377,3.293835,2.385348,3.100147
3.271442,3.293991,2.386154,3.105788
3.271463,3.293986,2.384542,3.106593
3.271578,3.293855,2.386154,3.100952
3.271327,3.293870,2.380513,3.102564
3.271322,3.293946,2.384542,3.102564
3.271392,3.294031,2.384542,3.102564
3.271342,3.293906,2.384542,3.101758
3.271306,3.293926,2.382124,3.100147
3.271347,3.293900,2.384542,3.104982
3.271382,3.293966,2.380513,3.106593
3.271322,3.293820,2.383736,3.103370
3.271342,3.293951,2.381319,3.106593
3.271347,3.293911,2.379707,3.105788
3.271468,3.293926,2.385348,3.105788
3.271221,3.293775,2.382931,3.096923
3.271362,3.293885,2.378901,3.106593
3.271332,3.293936,2.379707,3.102564
3.271276,3.293845,2.381319,3.104982
3.271024,3.293780,2.371648,3.101758
3.271226,3.293900,2.377289,3.098535
3.271286,3.293936,2.378901,3.101758
3.271070,3.293850,2.378901,3.097729
3.271130,3.293875,2.374066,3.100952
3.271241,3.293870,2.381319,3.102564
3.271175,3.293976,2.378901,3.106593
3.271045,3.293749,2.374066,3.099341
3.271019,3.293870,2.371648,3.099341
3.271070,3.293895,2.371648,3.101758
3.271206,3.293916,2.379707,3.106593
3.271029,3.293669,2.372454,3.093700
3.271080,3.293870,2.369231,3.106593
3.271024,3.293875,2.372454,3.099341
3.271115,3.293679,2.367619,3.093700
3.270727,3.293724,2.366007,3.096117
3.270929,3.293835,2.369231,3.101758
3.270989,3.293815,2.371648,3.100952
3.270989,3.293759,2.371648,3.096117
3.270803,3.293795,2.364396,3.096117
3.270954,3.293830,2.371648,3.098535
3.270924,3.293911,2.368425,3.105788
3.270813,3.293790,2.366813,3.090476
3.270833,3.293830,2.365201,3.099341
3.270878,3.293805,2.366007,3.097729
3.270974,3.293810,2.370842,3.099341
3.270717,3.293563,2.363590,3.093700
3.270838,3.293835,2.366007,3.093700
3.270818,3.293765,2.369231,3.096117
3.270863,3.293800,2.371648,3.096117
3.270621,3.293603,2.359560,3.095311
3.270747,3.293825,2.370842,3.097729
3.270783,3.293744,2.362784,3.098535
3.270813,3.293674,2.369231,3.093700
3.270611,3.293634,2.358755,3.094506
3.270732,3.293674,2.367619,3.094506
3.270717,3.293936,2.366007,3.104176
3.270632,3.293613,2.362784,3.093700
3.270611,3.293759,2.362784,3.093700
3.270752,3.293739,2.360366,3.095311
3.270848,3.293931,2.364396,3.104982
3.270657,3.293558,2.361172,3.092894
3.270621,3.293639,2.359560,3.100147
3.270677,3.293679,2.361172,3.093700
3.270727,3.293770,2.362784,3.098535
3.270531,3.293578,2.355531,3.091282
3.270621,3.293729,2.360366,3.098535
3.270596,3.293669,2.362784,3.096117
3.270657,3.293613,2.369231,3.091282
3.270516,3.293593,2.354725,3.095311
3.270652,3.293674,2.357949,3.096117
3.270632,3.293860,2.358755,3.096117
3.270581,3.293618,2.357949,3.093700
3.270571,3.293608,2.359560,3.093700
3.270626,3.293709,2.362784,3.093700
3.270677,3.293825,2.358755,3.100952
3.270551,3.293543,2.356337,3.092088
3.270516,3.293724,2.356337,3.093700
3.270586,3.293659,2.356337,3.096117
3.270652,3.293659,2.358755,3.104176
3.270526,3.293538,2.356337,3.091282
3.270632,3.293694,2.357949,3.093700
3.270586,3.293709,2.357949,3.099341
3.270637,3.293528,2.357949,3.096117
3.270455,3.293613,2.353920,3.089670
3.270491,3.293699,2.358755,3.096117
3.270480,3.293775,2.354725,3.094506
3.270435,3.293598,2.345861,3.094506
3.270385,3.293608,2.349890,3.096117
3.270496,3.293729,2.357949,3.093700
3.270526,3.293759,2.356337,3.100952
3.270445,3.293583,2.356337,3.092088
3.270511,3.293684,2.353920,3.099341
3.270410,3.293603,2.353920,3.092088
3.270556,3.293719,2.357949,3.095311
3.270299,3.293447,2.348278,3.089670
3.270445,3.293613,2.356337,3.096117
3.270395,3.293593,2.355531,3.093700
3.270455,3.293533,2.356337,3.095311
3.270168,3.293583,2.345861,3.093700
3.270420,3.293629,2.357143,3.094506
3.270440,3.293689,2.351502,3.093700
3.270234,3.293618,2.351502,3.093700
3.270360,3.293608,2.348278,3.093700
3.270516,3.293613,2.351502,3.093700
3.270531,3.293790,2.357949,3.102564
3.270546,3.293573,2.357949,3.092894
3.270591,3.293734,2.358755,3.102564
3.270803,3.293815,2.362784,3.095311
3.271019,3.293971,2.370037,3.104982
3.271024,3.293744,2.371648,3.095311
3.271231,3.294001,2.376483,3.104982
3.271407,3.293986,2.386154,3.108205
3.271750,3.294001,2.395018,3.103370
3.271639,3.294077,2.390183,3.105788
3.272001,3.294253,2.401465,3.114652
3.272198,3.294349,2.409524,3.114652
3.272369,3.294288,2.415165,3.115458
3.272404,3.294379,2.412747,3.118681
3.272656,3.294455,2.424029,3.119487
3.272792,3.294626,2.424835,3.129963
3.272767,3.294389,2.431282,3.121099
3.272812,3.294560,2.431282,3.121905
3.272974,3.294540,2.432088,3.122711
3.273074,3.294686,2.438535,3.126740
3.272873,3.294339,2.433700,3.116264
3.272933,3.294530,2.428059,3.123517
3.273004,3.294490,2.434505,3.120293
3.272918,3.294530,2.433700,3.130769
3.272702,3.294424,2.428059,3.115458
3.272888,3.294455,2.430476,3.120293
3.272797,3.294439,2.431282,3.119487
3.272722,3.294384,2.423223,3.118681
3.272601,3.294389,2.423223,3.117876
3.272676,3.294394,2.425641,3.119487
3.272626,3.294575,2.423223,3.126740
3.272490,3.294324,2.417583,3.114652
3.272460,3.294344,2.417583,3.114652
3.272485,3.294329,2.422418,3.114652
3.272606,3.294424,2.423223,3.121099
3.272369,3.294162,2.419194,3.111428
3.272409,3.294313,2.415165,3.114652
3.272258,3.294268,2.410330,3.116264
3.272435,3.294273,2.415165,3.117069
3.272173,3.294062,2.409524,3.108205
3.272188,3.294233,2.408718,3.114652
3.272143,3.294198,2.409524,3.110623
3.272158,3.294077,2.404689,3.107399
3.271981,3.294077,2.399853,3.108205
3.272012,3.294167,2.401465,3.113846
3.271986,3.294313,2.403883,3.112234
3.271760,3.294016,2.395018,3.106593
3.271795,3.294052,2.395018,3.106593
3.271800,3.294097,2.401465,3.108205
3.271956,3.294092,2.401465,3.110623
3.271674,3.293921,2.392601,3.106593
3.271694,3.294077,2.394212,3.109011
3.271553,3.293991,2.389377,3.107399
3.271755,3.293986,2.392601,3.106593
3.271417,3.293941,2.384542,3.102564
3.271619,3.293956,2.386960,3.109011
3.271483,3.293991,2.387766,3.105788
3.271432,3.293951,2.391795,3.106593
3.271322,3.293936,2.382124,3.104176
3.271422,3.293941,2.382124,3.106593
3.271402,3.294057,2.383736,3.106593
3.271362,3.293941,2.384542,3.105788
3.271281,3.293936,2.374872,3.105788
3.271382,3.293946,2.384542,3.104982
3.271442,3.293996,2.382124,3.109011
3.271306,3.293895,2.382124,3.100952
3.271332,3.293921,2.380513,3.106593
3.271337,3.293951,2.384542,3.106593
3.271412,3.294016,2.384542,3.107399
3.271246,3.293805,2.382124,3.098535
3.271352,3.293966,2.384542,3.106593
3.271306,3.293946,2.383736,3.103370
3.271306,3.293951,2.383736,3.107399
3.271150,3.293895,2.374066,3.102564
3.271301,3.293936,2.382931,3.104176
3.271357,3.294062,2.383736,3.106593
3.271382,3.293931,2.382124,3.102564
3.271276,3.293931,2.377289,3.101758
3.271347,3.293941,2.384542,3.104982
3.271387,3.294057,2.384542,3.108205
3.271322,3.293875,2.382124,3.102564
3.271362,3.293996,2.382931,3.106593
3.271377,3.293966,2.382124,3.106593
3.271422,3.293961,2.385348,3.106593
3.271256,3.293775,2.380513,3.098535
3.271392,3.293946,2.386154,3.105788
3.271347,3.293946,2.379707,3.106593
3.271402,3.293900,2.384542,3.105788
3.271125,3.293895,2.374066,3.101758
3.271372,3.293951,2.382931,3.106593
3.271261,3.293951,2.382931,3.104982
3.271337,3.293855,2.375678,3.100952
3.271160,3.293916,2.374872,3.104176
3.271266,3.293956,2.378901,3.105788
3.271342,3.294026,2.376483,3.107399
3.271181,3.293850,2.375678,3.100952
3.271150,3.293936,2.378901,3.106593
3.271150,3.293911,2.380513,3.100952
3.271357,3.293961,2.385348,3.106593
3.271130,3.293724,2.375678,3.097729
3.271145,3.293900,2.378901,3.102564
3.271176,3.293931,2.376483,3.102564
3.271176,3.293714,2.375678,3.097729
3.270969,3.293835,2.371648,3.100952
3.271115,3.293900,2.372454,3.099341
3.271110,3.293926,2.377289,3.101758
3.271095,3.293780,2.373260,3.098535
3.270949,3.293820,2.369231,3.101758
3.271055,3.293860,2.371648,3.104176
3.270999,3.293951,2.372454,3.106593
3.270959,3.293790,2.370037,3.098535
3.270924,3.293885,2.369231,3.097729
3.271019,3.293850,2.371648,3.096117
3.271125,3.293941,2.377289,3.106593
3.270873,3.293699,2.370037,3.093700
3.270974,3.293805,2.369231,3.100147
3.270964,3.293870,2.369231,3.104982
3.270989,3.293885,2.371648,3.098535
3.270833,3.293729,2.369231,3.097729
3.270984,3.293895,2.371648,3.104176
3.270954,3.293870,2.370037,3.098535
3.270803,3.293749,2.365201,3.100952
3.270722,3.293759,2.361978,3.096117
3.270813,3.293820,2.366007,3.100952
3.270868,3.293951,2.367619,3.107399
3.270763,3.293694,2.359560,3.099341
3.270768,3.293825,2.366813,3.096117
3.270798,3.293835,2.367619,3.101758
3.270939,3.293780,2.364396,3.104982
3.270717,3.293603,2.360366,3.093700
3.270677,3.293810,2.362784,3.096117
3.270732,3.293765,2.360366,3.095311
3.270883,3.293724,2.366007,3.096923
3.270621,3.293639,2.363590,3.094506
3.270813,3.293860,2.360366,3.095311
3.270727,3.293739,2.361978,3.100952
3.270752,3.293694,2.367619,3.095311
3.270581,3.293694,2.358755,3.093700
3.270667,3.293775,2.361978,3.098535
3.270662,3.293895,2.361172,3.100952
3.270601,3.293704,2.366813,3.095311
3.270611,3.293649,2.359560,3.097729
3.270727,3.293744,2.359560,3.097729
3.270778,3.293835,2.359560,3.101758
3.270627,3.293618,2.358755,3.095311
3.270601,3.293850,2.358755,3.098535
3.270606,3.293734,2.361172,3.098535
3.270783,3.293744,2.364396,3.099341
3.270601,3.293558,2.356337,3.093700
3.270601,3.293724,2.361978,3.096923
3.270682,3.293744,2.359560,3.093700
3.270687,3.293634,2.364396,3.097729
3.270546,3.293654,2.357949,3.095311
3.270707,3.293744,2.358755,3.097729
3.270642,3.293865,2.360366,3.097729
3.270556,3.293664,2.357949,3.096117
3.270571,3.293699,2.356337,3.096117
3.270606,3.293714,2.361978,3.096117
3.270627,3.293880,2.358755,3.100952
3.270551,3.293578,2.356337,3.094506
3.270551,3.293739,2.357949,3.096117
3.270531,3.293744,2.358755,3.095311
3.270682,3.293749,2.361172,3.093700
3.270410,3.293563,2.351502,3.092894
3.270591,3.293739,2.357949,3.098535
3.270506,3.293744,2.358755,3.096117
3.270581,3.293578,2.359560,3.099341
3.270355,3.293649,2.353114,3.091282
3.270531,3.293659,2.358755,3.093700
3.270546,3.293729,2.358755,3.099341
3.270531,3.293644,2.347472,3.092894
3.270486,3.293654,2.353114,3.095311
3.270516,3.293719,2.358755,3.093700
3.270546,3.293805,2.358755,3.100147
3.270501,3.293664,2.356337,3.093700
3.270521,3.293775,2.357949,3.097729
3.270581,3.293709,2.358755,3.097729
3.270722,3.293845,2.363590,3.097729
3.270496,3.293553,2.358755,3.093700
3.270642,3.293704,2.360366,3.093700
3.270742,3.293795,2.363590,3.099341
3.270914,3.293895,2.370037,3.102564
3.270793,3.293845,2.366007,3.097729
3.271140,3.293956,2.382124,3.106593
3.271357,3.294021,2.380513,3.107399
3.271453,3.294072,2.389377,3.106593
3.271488,3.294082,2.385348,3.106593
3.271815,3.294233,2.395018,3.111428
3.272057,3.294404,2.406300,3.117876
3.272213,3.294273,2.409524,3.117069
3.272359,3.294444,2.414359,3.115458
3.272591,3.294510,2.423223,3.120293
3.272908,3.294651,2.431282,3.127546
3.272782,3.294354,2.430476,3.119487
3.272969,3.294641,2.432894,3.125934
3.273029,3.294611,2.436117,3.126740
3.273155,3.294636,2.444176,3.124322
3.273014,3.294515,2.436117,3.122711
3.273195,3.294616,2.436923,3.129963
3.273266,3.294626,2.440952,3.125128
3.273165,3.294580,2.448205,3.121099
3.273064,3.294530,2.437729,3.122711
3.273200,3.294606,2.444982,3.127546
3.273105,3.294711,2.441758,3.131575
3.273059,3.294475,2.437729,3.121099
3.273004,3.294616,2.436117,3.121905
3.273024,3.294525,2.436117,3.125128
3.273135,3.294601,2.436117,3.128352
3.272893,3.294308,2.431282,3.118681
3.272863,3.294449,2.431282,3.121099
3.272757,3.294475,2.428059,3.118681
3.272843,3.294540,2.428059,3.118681
3.272586,3.294293,2.424029,3.114652
3.272702,3.294439,2.421612,3.120293
3.272596,3.294394,2.424029,3.119487
3.272676,3.294344,2.423223,3.115458
3.272369,3.294329,2.417583,3.113846
3.272571,3.294308,2.423223,3.113846
3.272525,3.294495,2.420806,3.118681
3.272319,3.294198,2.417583,3.115458
3.272263,3.294278,2.412747,3.113846
3.272374,3.294283,2.415165,3.117069
3.272465,3.294329,2.418388,3.119487
3.272263,3.294077,2.411135,3.111428
3.272203,3.294142,2.411135,3.118681
3.272203,3.294208,2.410330,3.115458
3.272274,3.294324,2.410330,3.116264
3.272087,3.294047,2.407912,3.112234
3.272173,3.294228,2.410330,3.109011
3.272107,3.294172,2.403077,3.113846
3.272072,3.294092,2.409524,3.106593
3.271876,3.294016,2.396630,3.106593
3.271931,3.294127,2.395824,3.107399
3.271876,3.294268,2.399853,3.108205
3.271785,3.293996,2.399853,3.107399
3.271694,3.294016,2.395824,3.105788
3.271790,3.294057,2.396630,3.108205
3.271871,3.294157,2.396630,3.113846
3.271614,3.293961,2.389377,3.105788
3.271609,3.294062,2.389377,3.106593
3.271674,3.294026,2.388572,3.110623
3.271790,3.294142,2.397436,3.112234
3.271528,3.293946,2.391795,3.105788
3.271725,3.294006,2.397436,3.106593
3.271699,3.294026,2.393407,3.107399
3.271785,3.293956,2.393407,3.104982
3.271468,3.293971,2.386960,3.106593
3.271709,3.294026,2.396630,3.109011
3.271584,3.294087,2.389377,3.106593
3.271528,3.293936,2.395018,3.105788
3.271427,3.293966,2.385348,3.107399
3.271584,3.294006,2.395824,3.106593
3.271568,3.294142,2.390183,3.110623
3.271523,3.293911,2.388572,3.106593
3.271573,3.294036,2.389377,3.109011
3.271594,3.294016,2.388572,3.106593
3.271735,3.294152,2.396630,3.109817
3.271558,3.293956,2.390183,3.104176
3.271730,3.294092,2.395018,3.106593
3.271694,3.294097,2.395824,3.107399
3.271775,3.293961,2.393407,3.114652
3.271518,3.293981,2.386960,3.106593
3.271765,3.294021,2.389377,3.108205
3.271679,3.294102,2.395018,3.106593
3.271553,3.293991,2.392601,3.104176
3.271584,3.293966,2.388572,3.106593
3.271553,3.294011,2.388572,3.106593
3.271619,3.294162,2.393407,3.111428
3.271558,3.293976,2.388572,3.105788
3.271478,3.294042,2.386960,3.111428
3.271599,3.294006,2.388572,3.106593
3.271644,3.293996,2.392601,3.110623
3.271448,3.293895,2.386960,3.102564
3.271523,3.294036,2.386960,3.106593
3.271473,3.293971,2.384542,3.106593
3.271584,3.293996,2.391795,3.106593
3.271387,3.293936,2.383736,3.104176
3.271417,3.293976,2.382931,3.106593
3.271432,3.294006,2.384542,3.106593
3.271448,3.293926,2.384542,3.105788
3.271317,3.293926,2.382931,3.105788
3.271352,3.293976,2.385348,3.105788
3.271387,3.294077,2.384542,3.109817
3.271246,3.293885,2.376483,3.104982
3.271296,3.293956,2.380513,3.102564
3.271251,3.293966,2.381319,3.105788
3.271382,3.294047,2.384542,3.107399
3.271125,3.293765,2.378901,3.098535
3.271226,3.293890,2.375678,3.101758
3.271231,3.293916,2.377289,3.104982
3.271291,3.293880,2.382124,3.103370
3.271009,3.293820,2.375678,3.101758
3.271155,3.293936,2.380513,3.106593
3.271171,3.293916,2.374066,3.104982
3.271150,3.293820,2.374066,3.101758
3.270974,3.293870,2.370842,3.102564
3.271055,3.293906,2.374066,3.104982
3.271035,3.293991,2.371648,3.109011
3.271019,3.293840,2.367619,3.101758
3.271004,3.293906,2.369231,3.097729
3.271060,3.293900,2.371648,3.106593
3.271155,3.293941,2.375678,3.104982
3.270964,3.293714,2.370842,3.096117
3.270994,3.293815,2.371648,3.106593
3.271019,3.293926,2.374066,3.101758
3.271140,3.293825,2.375678,3.102564
3.270904,3.293749,2.370037,3.098535
3.270984,3.293840,2.370037,3.100952
3.270969,3.293885,2.371648,3.100952
3.270969,3.293785,2.371648,3.093700
3.270828,3.293770,2.362784,3.098535
3.270949,3.293900,2.358755,3.102564
3.270939,3.293966,2.370842,3.104176
3.270813,3.293785,2.370842,3.097729
3.270848,3.293780,2.370037,3.100952
3.270944,3.293835,2.364396,3.095311
3.271045,3.293900,2.369231,3.101758
3.270732,3.293709,2.363590,3.096117
3.270763,3.293850,2.366813,3.100952
3.270853,3.293815,2.369231,3.098535
3.270954,3.293875,2.371648,3.105788
3.270702,3.293623,2.369231,3.092894
3.270853,3.293749,2.368425,3.101758
3.270803,3.293815,2.366813,3.100952
3.270858,3.293714,2.370037,3.095311
3.270611,3.293739,2.358755,3.096117
3.270682,3.293830,2.361172,3.101758
3.270768,3.293956,2.364396,3.103370
3.270647,3.293689,2.366813,3.097729
3.270687,3.293704,2.361172,3.096117
3.270747,3.293870,2.363590,3.097729
3.270717,3.293875,2.361978,3.104982
3.270622,3.293618,2.359560,3.093700
3.270657,3.293850,2.365201,3.100952
3.270677,3.293754,2.363590,3.098535
3.270808,3.293830,2.366813,3.096117
3.270606,3.293568,2.364396,3.092088
3.270712,3.293623,2.362784,3.100952
3.270677,3.293754,2.358755,3.096923
3.270808,3.293659,2.361978,3.100952
3.270521,3.293674,2.358755,3.093700
3.270606,3.293699,2.358755,3.093700
3.270601,3.293775,2.358755,3.099341
3.270611,3.293674,2.357143,3.092088
3.270561,3.293644,2.358755,3.093700
3.270622,3.293724,2.359560,3.098535
3.270632,3.293870,2.358755,3.102564
3.270576,3.293588,2.354725,3.093700
3.270576,3.293770,2.357949,3.100952
3.270561,3.293724,2.358755,3.097729
3.270712,3.293754,2.362784,3.102564
3.270516,3.293548,2.353920,3.093700
3.270677,3.293800,2.358755,3.101758
3.270697,3.293800,2.362784,3.096923
3.270702,3.293659,2.369231,3.093700
3.270571,3.293724,2.359560,3.095311
3.270788,3.293865,2.371648,3.102564
3.270868,3.293865,2.370842,3.101758
3.270989,3.293880,2.374066,3.100952
3.271035,3.293890,2.374066,3.103370
3.271296,3.294026,2.380513,3.106593
3.271432,3.294178,2.384542,3.112234
3.271579,3.294102,2.388572,3.106593
3.271800,3.294253,2.397436,3.114652
3.272143,3.294308,2.408718,3.111428
3.272475,3.294525,2.422418,3.120293
3.272485,3.294208,2.419194,3.112234
3.272712,3.294485,2.423223,3.121905
3.272898,3.294555,2.432088,3.120293
3.273089,3.294545,2.440952,3.130769
3.273029,3.294565,2.436117,3.121099
3.273246,3.294706,2.446594,3.129158
3.273427,3.294727,2.449011,3.130769
3.273442,3.294681,2.449817,3.128352
3.273351,3.294666,2.441758,3.125934
3.273533,3.294727,2.453846,3.126740
3.273513,3.294822,2.453040,3.132381
3.273437,3.294631,2.454652,3.123517
3.273412,3.294691,2.448205,3.128352
3.273462,3.294727,2.450623,3.131575
3.273593,3.294742,2.452235,3.132381
3.273336,3.294535,2.444176,3.121905
3.273402,3.294762,2.447399,3.127546
3.273321,3.294721,2.449817,3.126740
3.273417,3.294646,2.449817,3.133187
3.273059,3.294480,2.437729,3.121905
3.273170,3.294661,2.444176,3.124322
3.273190,3.294575,2.436923,3.121905
3.273095,3.294520,2.436117,3.119487
3.272959,3.294465,2.436117,3.124322
3.273009,3.294535,2.434505,3.123517
3.272989,3.294721,2.435311,3.131575
3.272898,3.294414,2.434505,3.121099
3.272853,3.294444,2.433700,3.119487
3.272843,3.294460,2.427253,3.120293
3.272913,3.294510,2.428864,3.125128
3.272656,3.294288,2.424029,3.113040
3.272621,3.294354,2.423223,3.118681
3.272591,3.294369,2.423223,3.119487
3.272651,3.294465,2.427253,3.118681
3.272379,3.294263,2.420806,3.110623
3.272571,3.294364,2.423223,3.119487
3.272450,3.294303,2.418388,3.117069
3.272551,3.294218,2.425641,3.111428
3.272274,3.294243,2.412747,3.113040
3.272243,3.294308,2.415971,3.114652
3.272299,3.294389,2.411941,3.116264
3.272193,3.294198,2.412747,3.108205
3.272173,3.294188,2.407912,3.109011
3.272173,3.294258,2.408718,3.109011
3.272218,3.294263,2.408718,3.115458
3.271997,3.294011,2.406300,3.106593
3.272032,3.294228,2.407912,3.109011
3.272002,3.294167,2.407106,3.109817
3.272178,3.294258,2.409524,3.106593
3.271866,3.293976,2.403077,3.105788
3.272012,3.294077,2.401465,3.111428
3.271906,3.294142,2.399853,3.108205
3.272062,3.294082,2.399853,3.104176
3.271735,3.294052,2.394212,3.105788
3.271886,3.294097,2.404689,3.106593
3.271881,3.294208,2.401465,3.107399
3.271775,3.294016,2.401465,3.106593
3.271830,3.294047,2.395824,3.109011
3.271856,3.294072,2.397436,3.106593
3.271941,3.294213,2.401465,3.113040
3.271765,3.293966,2.400659,3.106593
3.271750,3.294137,2.396630,3.109011
3.271785,3.294092,2.402271,3.108205
3.271946,3.294172,2.404689,3.106593
3.271679,3.293936,2.396630,3.102564
3.271850,3.294077,2.401465,3.106593
3.271871,3.294107,2.398242,3.109011
3.271891,3.293996,2.407106,3.106593
3.271699,3.293986,2.391795,3.106593
3.271855,3.294092,2.404689,3.111428
3.271871,3.294122,2.398242,3.109011
3.271855,3.293996,2.401465,3.106593
3.271790,3.294011,2.391795,3.106593
3.271861,3.294042,2.396630,3.110623
3.271845,3.294218,2.400659,3.113846
3.271810,3.293961,2.399853,3.105788
3.271790,3.294203,2.395824,3.112234
3.271790,3.294067,2.402271,3.106593
3.271991,3.294213,2.402271,3.109011
3.271735,3.293931,2.397436,3.102564
3.271825,3.294087,2.398242,3.110623
3.271785,3.294067,2.399853,3.106593
3.271941,3.293986,2.403077,3.113846
3.271538,3.293971,2.391795,3.106593
3.271795,3.294021,2.395018,3.108205
3.271725,3.294067,2.393407,3.108205
3.271775,3.293991,2.393407,3.105788
3.271614,3.293991,2.386960,3.106593
3.271659,3.294042,2.391795,3.107399
3.271674,3.294127,2.394212,3.112234
3.271543,3.293971,2.389377,3.107399
3.271483,3.294006,2.389377,3.106593
3.271594,3.293956,2.387766,3.104982
3.271740,3.294001,2.395018,3.110623
3.271402,3.293865,2.386154,3.102564
3.271508,3.293986,2.385348,3.106593
3.271503,3.293956,2.386154,3.106593
3.271478,3.293976,2.392601,3.109011
3.271276,3.293916,2.384542,3.102564
3.271417,3.293961,2.386960,3.106593
3.271442,3.293966,2.383736,3.106593
3.271397,3.293936,2.376483,3.104982
3.271291,3.293946,2.380513,3.097729
3.271347,3.293981,2.385348,3.104982
3.271352,3.294102,2.382931,3.111428
3.271251,3.293840,2.384542,3.104982
3.271241,3.293976,2.379707,3.106593
3.271286,3.293911,2.382931,3.098535
3.271397,3.294042,2.383736,3.108205
3.271196,3.293805,2.378901,3.100952
3.271145,3.293941,2.378901,3.101758
3.271256,3.293936,2.380513,3.102564
3.271306,3.293860,2.382124,3.107399
3.271014,3.293820,2.374066,3.093700
3.271171,3.293870,2.378901,3.104176
3.271261,3.293936,2.378901,3.102564
3.271191,3.293885,2.380513,3.105788
3.271014,3.293880,2.375678,3.098535
3.271317,3.293941,2.376483,3.104176
3.271206,3.294011,2.374872,3.104176
3.271115,3.293855,2.372454,3.104176
3.271060,3.293890,2.374066,3.102564
3.271181,3.293900,2.377289,3.100952
3.271332,3.293961,2.378901,3.106593
3.271055,3.293810,2.377289,3.098535
3.271095,3.293900,2.374066,3.104176
3.271024,3.293895,2.375678,3.105788
3.271130,3.293906,2.374872,3.106593
3.270919,3.293714,2.366813,3.096923
3.271019,3.293916,2.373260,3.101758
3.271045,3.293795,2.374066,3.102564
3.271055,3.293820,2.371648,3.097729
3.270888,3.293780,2.366813,3.097729
3.270974,3.293850,2.373260,3.101758
3.270974,3.293981,2.371648,3.105788
3.270939,3.293810,2.371648,3.098535
3.270974,3.293845,2.370037,3.100952
3.270959,3.293815,2.372454,3.104176
3.270999,3.293926,2.373260,3.106593
3.270899,3.293734,2.370842,3.100952
3.270893,3.293810,2.370037,3.104176
3.270929,3.293880,2.370842,3.104176
3.271009,3.293820,2.374872,3.102564
3.270813,3.293684,2.363590,3.093700
3.270828,3.293880,2.366813,3.097729
3.270833,3.293775,2.370037,3.102564
3.270929,3.293729,2.371648,3.102564
3.270652,3.293709,2.358755,3.098535
3.270843,3.293790,2.367619,3.096117
3.270848,3.293845,2.367619,3.100952
3.270647,3.293759,2.364396,3.095311
3.270702,3.293704,2.360366,3.096117
3.270798,3.293825,2.366007,3.099341
3.270853,3.293926,2.364396,3.104982
3.270692,3.293749,2.362784,3.096117
3.270727,3.293870,2.359560,3.102564
3.270803,3.293800,2.362784,3.095311
3.270888,3.293860,2.366813,3.099341
3.270692,3.293644,2.360366,3.093700
3.270808,3.293810,2.361172,3.095311
3.270778,3.293749,2.367619,3.100147
3.270964,3.293729,2.366813,3.103370
3.270611,3.293679,2.358755,3.097729
3.270763,3.293780,2.364396,3.100952
3.270793,3.293800,2.363590,3.098535
3.270601,3.293714,2.366813,3.095311
3.270637,3.293739,2.359560,3.096117
3.270778,3.293840,2.366007,3.099341
3.270798,3.293956,2.363590,3.104176
3.270828,3.293775,2.363590,3.093700
3.270899,3.293911,2.370037,3.099341
3.271004,3.293936,2.370842,3.106593
3.271281,3.294006,2.381319,3.108205
3.271145,3.293870,2.378901,3.099341
3.271448,3.294102,2.384542,3.106593
3.271609,3.294172,2.393407,3.109011
3.272022,3.294172,2.401465,3.114652
3.271916,3.294152,2.403077,3.109011
3.272243,3.294374,2.411941,3.117876
3.272500,3.294404,2.419194,3.119487
3.272697,3.294439,2.423223,3.120293
3.272782,3.294515,2.428059,3.122711
3.273089,3.294651,2.436923,3.124322
3.273120,3.294777,2.440952,3.132381
3.273256,3.294656,2.443370,3.129158
3.273452,3.294757,2.450623,3.131575
3.273633,3.294737,2.457070,3.132381
3.273815,3.294837,2.456264,3.133993
3.273583,3.294666,2.457875,3.128352
3.273739,3.294721,2.457875,3.132381
3.273704,3.294752,2.460293,3.130769
3.273815,3.294822,2.461905,3.126740
3.273548,3.294666,2.454652,3.128352
3.273714,3.294716,2.461905,3.125934
3.273603,3.294742,2.453040,3.129158
3.273628,3.294676,2.459487,3.129963
3.273442,3.294666,2.446594,3.124322
3.273472,3.294686,2.454652,3.129963
3.273422,3.294817,2.449011,3.129963
3.273341,3.294591,2.448205,3.125128
3.273366,3.294671,2.444176,3.127546
3.273407,3.294631,2.448205,3.126740
3.273487,3.294747,2.446594,3.130769
3.273069,3.294414,2.437729,3.123517
3.273069,3.294616,2.436923,3.127546
3.273034,3.294565,2.440146,3.121099
3.273160,3.294550,2.440146,3.119487
3.272918,3.294404,2.435311,3.116264
3.272989,3.294500,2.434505,3.122711
3.272994,3.294444,2.434505,3.120293
3.272974,3.294394,2.435311,3.110623
3.272747,3.294369,2.425641,3.119487
3.272878,3.294424,2.432088,3.120293
3.272828,3.294616,2.430476,3.121905
3.272671,3.294369,2.414359,3.117876
3.272636,3.294354,2.431282,3.117069
3.272687,3.294424,2.424029,3.120293
3.272777,3.294470,2.427253,3.120293
3.272561,3.294223,2.423223,3.114652
3.272556,3.294324,2.422418,3.118681
3.272520,3.294334,2.422418,3.114652
3.272546,3.294384,2.423223,3.117069
3.272238,3.294072,2.410330,3.107399
3.272304,3.294273,2.414359,3.117069
3.272233,3.294258,2.414359,3.110623
3.272223,3.294127,2.415971,3.109817
3.272122,3.294062,2.406300,3.107399
3.272158,3.294157,2.410330,3.109011
3.272163,3.294268,2.410330,3.113040
3.271976,3.294102,2.407912,3.107399
3.272072,3.294127,2.400659,3.109817
3.272052,3.294117,2.407106,3.114652
3.272133,3.294283,2.407912,3.114652
3.271997,3.294016,2.406300,3.107399
3.271921,3.294117,2.402271,3.108205
3.271991,3.294102,2.404689,3.107399
3.272057,3.294137,2.409524,3.111428
3.271850,3.294001,2.398242,3.106593
3.271976,3.294107,2.403077,3.106593
3.271911,3.294092,2.399853,3.110623
3.272002,3.294011,2.405494,3.109011
3.271735,3.294026,2.394212,3.106593
3.271976,3.294137,2.399853,3.107399
3.271926,3.294147,2.401465,3.107399
3.271861,3.294016,2.395018,3.110623
3.271835,3.294057,2.398242,3.106593
3.271871,3.294087,2.406300,3.109817
3.271946,3.294238,2.403077,3.118681
3.271916,3.294047,2.404689,3.106593
3.271931,3.294122,2.401465,3.114652
3.272032,3.294072,2.404689,3.108205
3.272173,3.294248,2.407912,3.115458
3.271891,3.293956,2.399853,3.104176
3.272027,3.294228,2.397436,3.113040
3.272022,3.294097,2.402271,3.110623
3.272047,3.294167,2.405494,3.113040
3.271750,3.294016,2.395824,3.107399
3.272002,3.294042,2.402271,3.107399
3.271936,3.294167,2.404689,3.109011
3.271921,3.293981,2.410330,3.106593
3.271810,3.294102,2.401465,3.107399
3.271886,3.294102,2.397436,3.109011
3.271855,3.294258,2.399048,3.113846
3.271830,3.294026,2.401465,3.107399
3.271805,3.294127,2.396630,3.106593
3.271835,3.294067,2.399853,3.108205
3.272047,3.294183,2.404689,3.110623
3.271709,3.293936,2.394212,3.105788
3.271770,3.294077,2.396630,3.106593
3.271745,3.294072,2.395018,3.107399
3.271881,3.294021,2.395018,3.109817
3.271528,3.293951,2.395824,3.104982
3.271770,3.294016,2.395824,3.106593
3.271810,3.294006,2.395018,3.106593
3.271805,3.294016,2.396630,3.106593
3.271578,3.293976,2.389377,3.106593
3.271639,3.294016,2.390183,3.106593
3.271584,3.294233,2.390183,3.113846
3.271458,3.293971,2.392601,3.104982
3.271427,3.294016,2.385348,3.104982
3.271503,3.293981,2.391795,3.104176
3.271664,3.294097,2.390183,3.107399
3.271407,3.293875,2.383736,3.104982
3.271392,3.293976,2.384542,3.106593
3.271417,3.293966,2.383736,3.107399
3.271488,3.293961,2.385348,3.106593
3.271286,3.293900,2.384542,3.102564
3.271432,3.293986,2.383736,3.106593
3.271402,3.293966,2.384542,3.105788
3.271337,3.293860,2.388572,3.099341
3.271276,3.293911,2.380513,3.104982
3.271337,3.293956,2.384542,3.104176
3.271332,3.294036,2.383736,3.101758
3.271201,3.293900,2.375678,3.105788
3.271171,3.293906,2.377289,3.100952
3.271291,3.293946,2.378901,3.104982
3.271352,3.293996,2.379707,3.105788
3.271125,3.293795,2.376483,3.101758
3.271186,3.293900,2.379707,3.106593
3.271176,3.293946,2.379707,3.103370
3.271306,3.293941,2.381319,3.105788
3.271070,3.293775,2.371648,3.100147
3.271115,3.293916,2.374872,3.102564
3.271150,3.293921,2.378901,3.101758
3.271065,3.293860,2.373260,3.096117
3.270969,3.293790,2.369231,3.099341
3.271125,3.293870,2.380513,3.100952
3.271105,3.293976,2.378901,3.105788
3.271060,3.293850,2.380513,3.104176
3.271014,3.293850,2.371648,3.100952
3.271055,3.293880,2.374066,3.098535
3.271135,3.293976,2.374066,3.107399
3.271014,3.293780,2.372454,3.099341
3.270979,3.293906,2.371648,3.100952
3.271060,3.293850,2.371648,3.105788
3.271115,3.293906,2.380513,3.099341
3.270999,3.293659,2.375678,3.096117
3.270979,3.293830,2.372454,3.098535
3.271024,3.293900,2.371648,3.100952
3.271095,3.293749,2.372454,3.096117
3.270823,3.293775,2.365201,3.093700
3.270979,3.293850,2.372454,3.099341
3.271004,3.293906,2.369231,3.103370
3.270974,3.293785,2.367619,3.100952
3.270883,3.293805,2.370037,3.098535
3.270984,3.293840,2.370842,3.099341
3.270969,3.293911,2.371648,3.104176
3.270858,3.293739,2.370037,3.099341
3.270848,3.293840,2.366007,3.101758
3.270919,3.293835,2.369231,3.103370
3.271029,3.293860,2.372454,3.104982
3.270803,3.293613,2.362784,3.093700
3.270883,3.293850,2.369231,3.094506
3.270883,3.293805,2.366007,3.100952
3.270883,3.293820,2.373260,3.093700
3.270682,3.293714,2.361172,3.099341
3.270793,3.293810,2.368425,3.096923
3.270808,3.293810,2.366007,3.100952
3.270773,3.293744,2.370842,3.099341
3.270652,3.293780,2.361172,3.096117
3.270783,3.293765,2.370842,3.097729
3.270768,3.293926,2.366813,3.103370
3.270763,3.293770,2.361172,3.098535
3.270717,3.293840,2.359560,3.096923
3.270783,3.293805,2.364396,3.098535
3.270909,3.293865,2.374066,3.097729
3.270702,3.293634,2.362784,3.095311
3.270853,3.293775,2.362784,3.104982
3.270808,3.293855,2.366813,3.099341
3.270878,3.293759,2.366007,3.105788
3.270828,3.293759,2.370037,3.096923
3.271110,3.293931,2.372454,3.102564
3.271206,3.293946,2.378901,3.105788
3.271296,3.293976,2.380513,3.105788
3.271372,3.294001,2.383736,3.106593
3.271725,3.294137,2.395018,3.109817
3.271835,3.294379,2.397436,3.121905
3.272047,3.294188,2.408718,3.114652
3.272208,3.294334,2.409524,3.115458
3.272490,3.294419,2.419194,3.119487
3.272903,3.294591,2.428059,3.121099
3.272802,3.294419,2.427253,3.118681
3.273014,3.294631,2.433700,3.126740
3.273130,3.294706,2.436117,3.126740
3.273407,3.294711,2.446594,3.132381
3.273316,3.294585,2.449011,3.125128
3.273608,3.294727,2.451429,3.131575
3.273623,3.294762,2.456264,3.130769
3.273659,3.294701,2.456264,3.128352
3.273528,3.294701,2.449817,3.129158
3.273649,3.294752,2.460293,3.130769
3.273664,3.294888,2.456264,3.132381
3.273543,3.294671,2.454652,3.128352
3.273538,3.294706,2.452235,3.127546
3.273583,3.294737,2.454652,3.130769
3.273674,3.294767,2.456264,3.132381
3.273417,3.294515,2.448205,3.124322
3.273457,3.294721,2.447399,3.125934
3.273553,3.294671,2.453846,3.128352
3.273528,3.294661,2.452235,3.125934
3.273215,3.294485,2.440952,3.121905
3.273215,3.294515,2.446594,3.123517
3.273130,3.294631,2.443370,3.129158
3.273225,3.294535,2.447399,3.119487
3.272948,3.294455,2.434505,3.121905
3.273009,3.294545,2.436117,3.123517
3.273019,3.294616,2.436117,3.123517
3.272833,3.294455,2.432088,3.118681
3.272812,3.294434,2.428864,3.117876
3.272883,3.294455,2.434505,3.118681
3.272913,3.294550,2.428059,3.125128
3.272697,3.294298,2.426447,3.118681
3.272702,3.294510,2.426447,3.122711
3.272687,3.294414,2.425641,3.119487
3.272777,3.294414,2.425641,3.123517
3.272576,3.294208,2.423223,3.112234
3.272626,3.294344,2.424029,3.118681
3.272566,3.294374,2.424835,3.117069
3.272490,3.294248,2.428059,3.118681
3.272279,3.294243,2.413553,3.113040
3.272495,3.294288,2.415165,3.117876
3.272460,3.294364,2.418388,3.115458
3.272299,3.294208,2.417583,3.110623
3.272183,3.294152,2.410330,3.111428
3.272218,3.294193,2.412747,3.109011
3.272208,3.294389,2.410330,3.121099
3.272193,3.294147,2.409524,3.110623
3.272158,3.294223,2.408718,3.115458
3.272173,3.294188,2.410330,3.113846
3.272228,3.294303,2.413553,3.111428
3.271916,3.293996,2.399853,3.105788
3.272077,3.294137,2.404689,3.112234
3.272097,3.294117,2.407106,3.114652
3.272032,3.293986,2.404689,3.106593
3.271820,3.294052,2.392601,3.106593
3.271997,3.294097,2.404689,3.111428
3.272002,3.294132,2.404689,3.111428
3.271835,3.294016,2.398242,3.108205
3.271866,3.294036,2.399048,3.108205
3.271976,3.294137,2.404689,3.110623
3.271951,3.294288,2.399853,3.115458
3.271881,3.294097,2.399048,3.106593
3.271856,3.294137,2.398242,3.109011
3.271986,3.294117,2.402271,3.109011
3.272143,3.294243,2.410330,3.114652
3.271871,3.294006,2.399853,3.104982
3.271997,3.294183,2.400659,3.109817
3.271941,3.294167,2.403883,3.109011
3.272102,3.294142,2.401465,3.106593
3.271825,3.294016,2.395824,3.106593
3.271966,3.294172,2.401465,3.115458
3.272047,3.294132,2.406300,3.108205
3.271976,3.294102,2.404689,3.107399
3.271876,3.294132,2.398242,3.109011
3.272032,3.294183,2.404689,3.113846
3.271941,3.294273,2.403077,3.115458
3.271891,3.294067,2.406300,3.106593
3.271896,3.294142,2.399048,3.107399
3.271951,3.294157,2.398242,3.109817
3.272087,3.294203,2.402271,3.115458
3.271800,3.293986,2.395018,3.106593
3.271906,3.294112,2.396630,3.117069
3.271855,3.294087,2.396630,3.109011
3.271941,3.293956,2.399853,3.113846
3.271725,3.294011,2.390183,3.102564
3.271840,3.294122,2.395018,3.110623
3.271805,3.294087,2.395018,3.109817
3.271830,3.294011,2.395824,3.106593
3.271644,3.294026,2.392601,3.106593
3.271709,3.294077,2.397436,3.106593
3.271750,3.294223,2.393407,3.113846
3.271619,3.294026,2.391795,3.107399
3.271558,3.294031,2.387766,3.106593
3.271599,3.294047,2.388572,3.106593
3.271725,3.294122,2.392601,3.106593
3.271493,3.293870,2.388572,3.104982
3.271518,3.294067,2.386960,3.106593
3.271468,3.294031,2.390183,3.105788
3.271639,3.293991,2.392601,3.110623
3.271377,3.293931,2.384542,3.103370
3.271468,3.293986,2.386960,3.104982
3.271448,3.293961,2.390183,3.106593
3.271493,3.293911,2.385348,3.106593
3.271327,3.293926,2.377289,3.104176
3.271448,3.293956,2.388572,3.105788
3.271382,3.294147,2.388572,3.106593
3.271337,3.293885,2.382124,3.104982
3.271332,3.293926,2.379707,3.100952
3.271392,3.293941,2.384542,3.105788
3.271422,3.294011,2.382124,3.110623
3.271266,3.293845,2.379707,3.106593
3.271261,3.293951,2.380513,3.104982
3.271286,3.293961,2.381319,3.105788
3.271367,3.293936,2.384542,3.106593
3.271095,3.293855,2.377289,3.099341
3.271312,3.293971,2.384542,3.105788
3.271186,3.293966,2.379707,3.104176
3.271332,3.293865,2.375678,3.099341
3.271019,3.293885,2.371648,3.100952
3.271256,3.293941,2.379707,3.104176
3.271100,3.294011,2.378901,3.105788
3.271181,3.293906,2.380513,3.101758
3.271024,3.293890,2.371648,3.103370
3.271135,3.293921,2.380513,3.101758
3.271135,3.293966,2.375678,3.104176
3.271040,3.293815,2.374066,3.100952
3.271035,3.293961,2.374066,3.104176
3.271125,3.293895,2.375678,3.104982
3.271251,3.293956,2.379707,3.104176
3.271009,3.293729,2.371648,3.099341
3.271110,3.293946,2.375678,3.104982
3.271125,3.293946,2.370037,3.104982
3.271181,3.293744,2.380513,3.104176
3.270979,3.293810,2.367619,3.096117
3.271125,3.293916,2.373260,3.105788
3.271029,3.293946,2.377289,3.102564
3.271050,3.293820,2.367619,3.101758
3.270878,3.293875,2.366813,3.098535
3.270949,3.293916,2.371648,3.102564
3.270974,3.293941,2.373260,3.106593
3.270979,3.293845,2.370842,3.097729
3.270939,3.293921,2.369231,3.104982
3.271014,3.293870,2.370037,3.102564
3.271125,3.293901,2.380513,3.106593
3.270919,3.293770,2.366007,3.098535
3.270994,3.293855,2.370842,3.104176
3.270959,3.293840,2.370842,3.102564
3.270964,3.293835,2.364396,3.100952
3.270793,3.293780,2.359560,3.096923
3.270954,3.293855,2.371648,3.102564
3.270868,3.293855,2.369231,3.100952
3.270833,3.293775,2.371648,3.102564
3.270702,3.293775,2.363590,3.100952
3.270863,3.293805,2.367619,3.099341
3.270833,3.293966,2.366813,3.104982
3.270763,3.293780,2.366813,3.100952
3.270692,3.293901,2.361172,3.098535
3.270742,3.293890,2.362784,3.102564
3.270914,3.293830,2.371648,3.102564
3.270677,3.293669,2.366007,3.094506
3.270763,3.293765,2.366007,3.101758
3.270768,3.293845,2.366813,3.098535
3.270843,3.293855,2.366813,3.106593
3.270601,3.293699,2.358755,3.092894
3.270773,3.293830,2.363590,3.104982
3.270813,3.293901,2.370037,3.101758
3.270863,3.293820,2.361172,3.098535
3.270858,3.293865,2.362784,3.101758
3.271024,3.293941,2.371648,3.104176
3.271135,3.294047,2.379707,3.113846
3.271186,3.293931,2.383736,3.105788
3.271362,3.294052,2.384542,3.106593
3.271639,3.294112,2.388572,3.113846
3.272022,3.294273,2.399853,3.116264
3.272087,3.294178,2.405494,3.111428
3.272243,3.294349,2.410330,3.117876
3.272490,3.294465,2.420806,3.120293
3.272888,3.294510,2.428864,3.122711
3.272848,3.294475,2.432088,3.119487
3.273079,3.294666,2.438535,3.131575
3.273246,3.294716,2.444982,3.129963
3.273482,3.294716,2.451429,3.132381
3.273392,3.294752,2.447399,3.130769
3.273654,3.294812,2.459487,3.131575
3.273759,3.294898,2.459487,3.132381
3.273699,3.294777,2.457875,3.131575
3.273709,3.294762,2.457070,3.131575
3.273769,3.294782,2.461905,3.128352
3.273855,3.294812,2.461905,3.132381
3.273704,3.294641,2.460293,3.126740
3.273719,3.294822,2.456264,3.132381
3.273669,3.294767,2.458681,3.132381
3.273714,3.294797,2.461099,3.129158
3.273467,3.294621,2.449817,3.126740
3.273644,3.294721,2.453846,3.126740
3.273538,3.294757,2.449817,3.129158
3.273513,3.294611,2.456264,3.129963
3.273246,3.294621,2.441758,3.125128
3.273316,3.294727,2.453040,3.130769
3.273366,3.294732,2.445787,3.130769
3.273135,3.294560,2.446594,3.123517
3.273180,3.294611,2.443370,3.125128
3.273256,3.294666,2.447399,3.126740
3.273225,3.294721,2.445787,3.129963
3.273059,3.294490,2.440146,3.125128
3.273044,3.294591,2.438535,3.121099
3.273049,3.294580,2.437729,3.124322
3.273150,3.294616,2.440146,3.129963
3.272883,3.294369,2.428059,3.117876
3.272984,3.294570,2.436117,3.120293
3.272989,3.294465,2.436117,3.123517
3.273004,3.294359,2.436117,3.117876
3.272676,3.294359,2.423223,3.116264
3.272853,3.294444,2.429670,3.121099
3.272742,3.294449,2.425641,3.118681
3.272581,3.294329,2.418388,3.116264
3.272530,3.294314,2.420806,3.119487
3.272581,3.294369,2.422418,3.119487
3.272515,3.294449,2.419194,3.121099
3.272394,3.294208,2.415971,3.113846
3.272334,3.294308,2.418388,3.116264
3.272435,3.294258,2.415165,3.114652
3.272505,3.294379,2.420806,3.113846
3.272203,3.294087,2.413553,3.106593
3.272248,3.294258,2.410330,3.116264
3.272213,3.294258,2.412747,3.112234
3.272339,3.294208,2.417583,3.110623
3.272107,3.294132,2.405494,3.109011
3.272203,3.294228,2.411135,3.117069
3.272208,3.294263,2.411135,3.115458
3.271971,3.294147,2.403077,3.112234
3.272032,3.294167,2.402271,3.110623
3.272092,3.294157,2.410330,3.112234
3.272092,3.294329,2.406300,3.117069
3.272007,3.294052,2.401465,3.113846
3.272012,3.294223,2.403077,3.110623
3.272067,3.294172,2.407106,3.117069
3.272198,3.294233,2.410330,3.118681
3.272032,3.294021,2.401465,3.106593
3.272092,3.294193,2.406300,3.113040
3.272072,3.294208,2.407912,3.112234
3.272188,3.294067,2.411941,3.109011
3.272002,3.294122,2.404689,3.106593
3.272208,3.294233,2.407912,3.110623
3.272193,3.294238,2.409524,3.112234
3.272168,3.294203,2.405494,3.111428
3.272077,3.294193,2.405494,3.113846
3.272188,3.294258,2.408718,3.112234
3.272178,3.294359,2.410330,3.119487
3.272122,3.294112,2.402271,3.108205
3.272127,3.294273,2.407912,3.111428
3.272158,3.294218,2.408718,3.111428
3.272263,3.294258,2.409524,3.117069
3.272007,3.294036,2.402271,3.109011
3.272022,3.294183,2.405494,3.112234
3.272022,3.294142,2.405494,3.113846
3.272087,3.294122,2.403883,3.117876
3.271866,3.294047,2.405494,3.106593
3.271961,3.294112,2.406300,3.109011
3.272052,3.294198,2.406300,3.112234
3.272022,3.294047,2.410330,3.109011
3.271820,3.294082,2.395018,3.107399
3.271896,3.294147,2.402271,3.110623
3.271916,3.294339,2.397436,3.112234
3.271840,3.294087,2.395018,3.108205
3.271760,3.294057,2.395824,3.108205
3.271871,3.294137,2.399048,3.113846
3.271951,3.294218,2.397436,3.107399
3.271694,3.293956,2.393407,3.106593
3.271699,3.294142,2.397436,3.113846
3.271740,3.294112,2.396630,3.106593
3.271840,3.294057,2.398242,3.113846
3.271518,3.293971,2.390183,3.106593
3.271745,3.294102,2.395018,3.115458
3.271634,3.294057,2.393407,3.110623
3.271709,3.294006,2.392601,3.105788
3.271432,3.293966,2.388572,3.106593
3.271573,3.293996,2.393407,3.107399
3.271513,3.294122,2.386960,3.108205
3.271448,3.293981,2.388572,3.106593
3.271442,3.293926,2.384542,3.104982
3.271483,3.294016,2.386154,3.106593
3.271483,3.294077,2.386154,3.109817
3.271382,3.293936,2.381319,3.104176
3.271387,3.294016,2.383736,3.109011
3.271397,3.293966,2.384542,3.102564
3.271518,3.294042,2.386154,3.106593
3.271342,3.293916,2.380513,3.101758
3.271473,3.294047,2.391795,3.105788
3.271402,3.293961,2.384542,3.106593
3.271432,3.293926,2.384542,3.100147
3.271196,3.293931,2.376483,3.104176
3.271372,3.293971,2.384542,3.104982
3.271347,3.294016,2.382124,3.106593
3.271145,3.293931,2.374066,3.103370
3.271211,3.293931,2.378095,3.102564
3.271296,3.293971,2.382931,3.102564
3.271322,3.294026,2.381319,3.108205
3.271181,3.293855,2.378901,3.104982
3.271206,3.293911,2.377289,3.107399
3.271196,3.293916,2.376483,3.106593
3.271337,3.293986,2.384542,3.104982
3.271024,3.293805,2.371648,3.098535
3.271246,3.293916,2.375678,3.102564
3.271226,3.293916,2.378901,3.105788
3.271191,3.293865,2.382124,3.100952
3.270984,3.293795,2.368425,3.097729
3.271236,3.293885,2.371648,3.105788
3.271191,3.293951,2.374066,3.106593
3.271226,3.293875,2.378901,3.100952
3.271060,3.293860,2.372454,3.101758
3.271130,3.293911,2.371648,3.104176
3.271029,3.293951,2.373260,3.106593
3.271009,3.293850,2.370037,3.100952
3.271004,3.293951,2.371648,3.101758
3.271040,3.293875,2.375678,3.101758
3.271160,3.293931,2.377289,3.105788
3.270944,3.293694,2.370842,3.095311
3.271040,3.293875,2.370842,3.097729
3.270969,3.293911,2.378901,3.100952
3.270954,3.293734,2.374872,3.105788
3.270808,3.293850,2.363590,3.101758
3.270894,3.293921,2.370842,3.096923
3.270959,3.293901,2.371648,3.102564
3.270853,3.293825,2.375678,3.099341
3.270848,3.293830,2.359560,3.098535
3.270878,3.293875,2.363590,3.102564
3.270904,3.293976,2.369231,3.106593
3.270914,3.293810,2.367619,3.097729
3.270868,3.293911,2.367619,3.100952
3.270974,3.293936,2.369231,3.101758
3.271045,3.293951,2.370842,3.104982
3.270929,3.293654,2.369231,3.097729
3.270888,3.293895,2.366813,3.100952
3.270894,3.293850,2.367619,3.101758
3.270939,3.293880,2.367619,3.101758
3.270768,3.293709,2.361978,3.098535
3.270883,3.293830,2.369231,3.101758
3.270808,3.293870,2.368425,3.101758
3.270828,3.293754,2.372454,3.096117
3.270617,3.293765,2.362784,3.093700
3.270737,3.293754,2.359560,3.101758
3.270768,3.293946,2.366007,3.102564
3.270652,3.293759,2.363590,3.093700
3.270758,3.293840,2.358755,3.096923
3.270888,3.293870,2.364396,3.104982
3.271040,3.293971,2.371648,3.105788
3.270813,3.293649,2.366813,3.099341
3.270929,3.293916,2.371648,3.100952
3.271115,3.293951,2.376483,3.105788
3.271231,3.294001,2.382124,3.101758
3.271271,3.293956,2.380513,3.104982
3.271513,3.294097,2.386960,3.114652
3.271689,3.294203,2.395018,3.109011
3.271926,3.294268,2.401465,3.113846
3.271951,3.294308,2.402271,3.117069
3.272349,3.294419,2.414359,3.119487
3.272571,3.294646,2.420806,3.122711
3.272712,3.294455,2.428864,3.121099
3.272923,3.294606,2.433700,3.120293
3.273105,3.294681,2.436117,3.129963
3.273492,3.294777,2.448205,3.132381
3.273487,3.294666,2.449817,3.129963
3.273593,3.294772,2.453040,3.130769
3.273724,3.294782,2.456264,3.132381
3.273890,3.294832,2.460293,3.133993
3.273744,3.294747,2.461099,3.129963
3.273820,3.294842,2.461905,3.136410
3.273855,3.294812,2.461905,3.133187
3.274026,3.294742,2.466740,3.124322
3.273734,3.294747,2.460293,3.130769
3.273835,3.294777,2.461905,3.129963
3.273825,3.294888,2.461905,3.132381
3.273654,3.294752,2.461099,3.132381
3.273669,3.294777,2.455458,3.129963
3.273754,3.294747,2.457070,3.131575
3.273739,3.294792,2.454652,3.133187
3.273583,3.294641,2.453040,3.127546
3.273508,3.294747,2.453040,3.130769
3.273502,3.294711,2.449817,3.131575
3.273654,3.294742,2.457070,3.127546
3.273311,3.294560,2.445787,3.121099
3.273422,3.294676,2.451429,3.124322
3.273271,3.294646,2.448205,3.128352
3.273377,3.294621,2.444982,3.131575
3.273044,3.294601,2.440952,3.122711
3.273266,3.294621,2.442564,3.123517
3.273200,3.294661,2.440952,3.126740
3.273110,3.294500,2.433700,3.124322
3.273009,3.294455,2.436117,3.121905
3.273004,3.294575,2.438535,3.122711
3.273029,3.294696,2.436923,3.127546
3.272953,3.294389,2.434505,3.125128
3.272928,3.294480,2.434505,3.122711
3.272923,3.294439,2.435311,3.123517
3.272989,3.294575,2.435311,3.125128
3.272722,3.294283,2.429670,3.115458
3.272762,3.294444,2.427253,3.117876
3.272712,3.294414,2.426447,3.119487
3.272807,3.294263,2.429670,3.113846
3.272525,3.294273,2.422418,3.117069
3.272551,3.294399,2.424835,3.115458
3.272571,3.294374,2.423223,3.115458
3.272500,3.294273,2.412747,3.114652
3.272354,3.294258,2.415165,3.115458
3.272430,3.294324,2.418388,3.115458
3.272420,3.294439,2.420806,3.119487
3.272263,3.294183,2.412747,3.110623
3.272294,3.294263,2.410330,3.109011
3.272324,3.294278,2.411135,3.118681
3.272445,3.294389,2.420000,3.119487
3.272228,3.294057,2.409524,3.113846
3.272243,3.294253,2.411135,3.111428
3.272263,3.294293,2.410330,3.117069
3.272324,3.294157,2.415165,3.113846
3.272117,3.294117,2.405494,3.109011
3.272218,3.294354,2.412747,3.115458
3.272213,3.294263,2.410330,3.111428
3.272289,3.294188,2.419194,3.107399
3.272178,3.294178,2.410330,3.109817
3.272248,3.294258,2.411135,3.117069
3.272218,3.294379,2.411135,3.119487
3.272213,3.294223,2.407106,3.113846
3.272213,3.294278,2.406300,3.112234
3.272248,3.294228,2.411135,3.112234
3.272364,3.294359,2.411941,3.117069
3.272208,3.294031,2.410330,3.108205
3.272218,3.294248,2.410330,3.113846
3.272223,3.294223,2.410330,3.115458
3.272359,3.294228,2.418388,3.113846
3.272097,3.294152,2.410330,3.109011
3.272344,3.294243,2.412747,3.113040
3.272188,3.294268,2.411135,3.112234
3.272294,3.294203,2.409524,3.106593
3.272092,3.294167,2.408718,3.112234
3.272148,3.294298,2.405494,3.113846
3.272203,3.294394,2.409524,3.117876
3.272138,3.294142,2.410330,3.110623
3.272153,3.294147,2.409524,3.112234
3.272168,3.294303,2.406300,3.110623
3.272263,3.294303,2.409524,3.115458
3.272032,3.294087,2.407106,3.110623
3.272178,3.294248,2.406300,3.113040
3.272158,3.294273,2.410330,3.114652
3.272203,3.294273,2.410330,3.112234
3.271992,3.294062,2.401465,3.106593
3.271992,3.294132,2.406300,3.116264
3.271986,3.294152,2.399048,3.107399
3.271997,3.294107,2.409524,3.112234
3.271790,3.294077,2.399853,3.107399
3.272042,3.294112,2.405494,3.110623
3.271971,3.294228,2.399853,3.111428
3.271876,3.294036,2.400659,3.106593
3.271750,3.294052,2.398242,3.108205
3.271775,3.294042,2.400659,3.106593
3.271815,3.294193,2.395824,3.115458
3.271699,3.293986,2.395824,3.106593
3.271674,3.294047,2.392601,3.112234
3.271709,3.294021,2.395018,3.109817
3.271775,3.294172,2.400659,3.111428
3.271609,3.293941,2.390183,3.103370
3.271725,3.293986,2.390183,3.107399
3.271629,3.294006,2.393407,3.106593
3.271689,3.294016,2.396630,3.104176
3.271392,3.293961,2.383736,3.104982
3.271563,3.294016,2.392601,3.106593
3.271508,3.294026,2.389377,3.107399
3.271473,3.293961,2.384542,3.106593
3.271397,3.293971,2.384542,3.105788
3.271432,3.294016,2.384542,3.106593
3.271437,3.294082,2.386154,3.109817
3.271427,3.293941,2.384542,3.103370
3.271397,3.293971,2.384542,3.106593
3.271387,3.293946,2.384542,3.105788
3.271453,3.294016,2.386960,3.106593
3.271317,3.293860,2.384542,3.099341
3.271392,3.293941,2.382931,3.101758
3.271377,3.293946,2.378901,3.105788
3.271362,3.293956,2.384542,3.105788
3.271191,3.293895,2.378901,3.102564
3.271357,3.293936,2.384542,3.107399
3.271221,3.293961,2.379707,3.105788
3.271307,3.293906,2.383736,3.101758
3.271211,3.293926,2.378901,3.102564
3.271286,3.293916,2.378901,3.105788
3.271256,3.294047,2.378901,3.106593
3.271145,3.293911,2.375678,3.098535
3.271176,3.293956,2.375678,3.103370
3.271226,3.293895,2.374872,3.104176
3.271327,3.294001,2.384542,3.104982
3.271070,3.293780,2.372454,3.096923
3.271150,3.293956,2.376483,3.105788
3.271150,3.293951,2.377289,3.102564
3.271236,3.293931,2.378901,3.104982
3.271004,3.293820,2.374066,3.097729
3.271176,3.293911,2.378901,3.099341
3.271115,3.293931,2.371648,3.103370
3.271171,3.293845,2.377289,3.102564
3.270999,3.293870,2.371648,3.101758
3.271070,3.293941,2.371648,3.101758
3.271090,3.293981,2.374066,3.109011
3.270999,3.293759,2.369231,3.101758
3.270999,3.293900,2.371648,3.099341
3.271040,3.293855,2.371648,3.103370
3.271176,3.293961,2.374066,3.105788
3.270959,3.293744,2.371648,3.096117
3.270994,3.293880,2.368425,3.105788
3.271045,3.293911,2.373260,3.104982
3.271065,3.293926,2.374066,3.107399
3.270868,3.293795,2.366007,3.099341
3.270989,3.293895,2.378095,3.104176
3.271050,3.293926,2.370037,3.103370
3.271019,3.293865,2.377289,3.100952
3.270828,3.293845,2.363590,3.096923
3.270893,3.293890,2.370037,3.100952
3.270949,3.293936,2.370037,3.102564
3.270909,3.293800,2.367619,3.101758
3.270914,3.293850,2.363590,3.101758
3.270949,3.293931,2.370842,3.102564
3.271024,3.293971,2.371648,3.104176
3.270848,3.293724,2.367619,3.102564
3.270888,3.293875,2.367619,3.103370
3.270863,3.293906,2.370842,3.101758
3.270974,3.293895,2.372454,3.103370
3.270712,3.293664,2.366007,3.092894
3.270783,3.293880,2.369231,3.100952
3.270788,3.293845,2.362784,3.100147
3.270914,3.293780,2.368425,3.095311
3.270642,3.293790,2.362784,3.095311
3.270873,3.293860,2.369231,3.101758
3.270919,3.293946,2.370842,3.104982
3.270909,3.293880,2.370037,3.101758
3.270979,3.293921,2.369231,3.105788
3.271085,3.293941,2.371648,3.104176
3.271281,3.294016,2.379707,3.106593
3.271337,3.293946,2.377289,3.104176
3.271427,3.294142,2.384542,3.108205
3.271699,3.294172,2.390183,3.110623
3.271971,3.294314,2.402271,3.113040
3.271966,3.294122,2.408718,3.110623
3.272349,3.294399,2.417583,3.116264
3.272495,3.294520,2.420000,3.122711
3.272797,3.294505,2.428059,3.118681
3.272722,3.294470,2.427253,3.123517
3.273019,3.294691,2.436117,3.128352
3.273165,3.294742,2.440952,3.130769
3.273321,3.294721,2.447399,3.127546
3.273397,3.294727,2.450623,3.132381
3.273603,3.294767,2.453040,3.132381
3.273744,3.294868,2.454652,3.134799
3.273724,3.294762,2.457875,3.130769
3.273785,3.294812,2.461905,3.132381
3.273749,3.294767,2.460293,3.129963
3.273815,3.294842,2.461905,3.132381
3.273654,3.294696,2.457070,3.128352
3.273769,3.294787,2.457875,3.129963
3.273719,3.294777,2.459487,3.132381
3.273810,3.294666,2.460293,3.128352
3.273548,3.294661,2.454652,3.127546
3.273497,3.294742,2.456264,3.127546
3.273472,3.294747,2.451429,3.128352
3.273321,3.294696,2.450623,3.129158
3.273321,3.294676,2.441758,3.125934
3.273382,3.294646,2.444982,3.126740
3.273251,3.294762,2.444176,3.132381
3.273140,3.294555,2.440146,3.128352
3.273074,3.294626,2.438535,3.124322
3.273140,3.294606,2.441758,3.124322
3.273185,3.294596,2.444176,3.128352
3.272938,3.294379,2.432088,3.121099
3.273014,3.294495,2.435311,3.124322
3.272999,3.294495,2.433700,3.121099
3.273014,3.294500,2.436117,3.113846
3.272722,3.294374,2.426447,3.114652
3.272878,3.294480,2.432894,3.122711
3.272817,3.294510,2.428864,3.120293
3.272812,3.294404,2.436117,3.117876
3.272606,3.294329,2.424029,3.117069
3.272646,3.294439,2.423223,3.120293
3.272641,3.294560,2.425641,3.129963
3.272606,3.294339,2.427253,3.121099
3.272566,3.294419,2.422418,3.117876
3.272556,3.294354,2.423223,3.117069
3.272636,3.294475,2.419194,3.118681
3.272369,3.294162,2.415165,3.113846
3.272289,3.294344,2.411135,3.118681
3.272279,3.294308,2.410330,3.114652
3.272294,3.294178,2.415971,3.113846
3.272148,3.294117,2.407106,3.108205
3.272228,3.294188,2.415165,3.109011
3.272168,3.294288,2.410330,3.109011
3.272173,3.294142,2.410330,3.107399
3.272022,3.294142,2.401465,3.110623
3.272107,3.294263,2.410330,3.115458
3.272143,3.294399,2.410330,3.115458
3.272143,3.294152,2.406300,3.112234
3.272037,3.294162,2.403077,3.108205
3.272077,3.294218,2.405494,3.112234
3.272163,3.294193,2.406300,3.114652
3.271936,3.294047,2.399048,3.106593
3.271946,3.294208,2.401465,3.117069
3.272052,3.294167,2.399853,3.109817
3.272082,3.294188,2.404689,3.111428
3.271861,3.294052,2.398242,3.106593
3.272092,3.294147,2.404689,3.114652
3.272042,3.294147,2.406300,3.111428
3.272148,3.294152,2.403077,3.106593
3.271855,3.294112,2.399853,3.106593
3.272107,3.294203,2.402271,3.109011
3.272072,3.294298,2.407912,3.113846
3.271891,3.294052,2.405494,3.109011
3.272002,3.294117,2.405494,3.111428
3.272062,3.294162,2.407106,3.113846
3.272087,3.294268,2.403883,3.115458
3.271926,3.294016,2.400659,3.109011
3.272022,3.294152,2.404689,3.116264
3.272002,3.294193,2.404689,3.117069
3.272107,3.294238,2.407106,3.117069
3.271906,3.294042,2.395824,3.106593
3.271971,3.294263,2.402271,3.113040
3.272057,3.294208,2.401465,3.113040
3.272022,3.294082,2.407912,3.112234
3.271840,3.294016,2.396630,3.105788
3.271835,3.294147,2.401465,3.111428
3.271936,3.294283,2.401465,3.109011
3.271951,3.294036,2.406300,3.107399
3.271770,3.294067,2.398242,3.107399
3.271820,3.294082,2.405494,3.111428
3.271886,3.294293,2.400659,3.114652
3.271785,3.294006,2.395018,3.107399
3.271765,3.294092,2.395824,3.112234
3.271755,3.294047,2.397436,3.109011
3.271911,3.294107,2.398242,3.106593
3.271624,3.293971,2.395018,3.104982
3.271740,3.294112,2.392601,3.106593
3.271699,3.294107,2.395018,3.110623
3.271810,3.294062,2.398242,3.105788
3.271422,3.293956,2.386960,3.106593
3.271538,3.294011,2.395018,3.107399
3.271568,3.294052,2.387766,3.106593
3.271448,3.293961,2.389377,3.106593
3.271392,3.293961,2.384542,3.106593
3.271473,3.294052,2.386960,3.103370
3.271478,3.294107,2.386154,3.109011
3.271417,3.293966,2.382124,3.106593
3.271412,3.294047,2.383736,3.106593
3.271427,3.293996,2.385348,3.109011
