2.294456,3.001046,2.295092,2.999414
2.294532,3.000960,2.295897,2.995385
2.294205,3.000870,2.287839,2.997802
2.294149,3.001011,2.291062,2.997802
2.294074,3.001036,2.293480,3.001026
2.293953,3.000991,2.294286,2.993773
2.293590,3.000991,2.290257,2.997802
2.293600,3.001157,2.295092,2.998608
2.293384,3.001217,2.289451,3.004249
2.293288,3.001122,2.287033,2.994579
2.293016,3.001207,2.284615,3.002637
2.293056,3.001288,2.289451,2.999414
2.292895,3.001378,2.292674,3.001832
2.292638,3.001127,2.288645,2.998608
2.292563,3.001127,2.292674,3.002637
2.292462,3.001086,2.286227,2.997802
2.292381,3.001021,2.289451,2.998608
2.292009,3.000709,2.281392,2.992161
2.291858,3.000714,2.287839,2.999414
2.291717,3.000633,2.286227,2.993773
2.291480,3.000492,2.288645,2.994579
2.291011,3.000290,2.280586,2.992967
2.290810,3.000270,2.283809,2.993773
2.290533,3.000200,2.281392,2.997802
2.290226,2.999968,2.288645,2.996191
2.289717,2.999862,2.281392,2.997802
2.289495,2.999983,2.288645,2.995385
2.289062,3.000019,2.283809,3.001026
2.288700,2.999958,2.281392,2.990550
2.288262,3.000079,2.282198,3.001026
2.288206,3.000084,2.281392,2.999414
2.288070,3.000059,2.286227,3.001026
2.287662,2.999797,2.279780,2.990550
2.287189,2.999787,2.279780,3.001026
2.287053,2.999691,2.282198,2.993773
2.286972,2.999651,2.288645,3.001832
2.286635,2.999283,2.281392,2.988132
2.286337,2.999253,2.284615,2.999414
2.286131,2.999102,2.283004,2.995385
2.285869,2.998900,2.283809,2.995385
2.285350,2.998588,2.277363,2.992161
2.285053,2.998578,2.283809,2.992967
2.284771,2.998503,2.281392,2.995385
2.284403,2.998331,2.286227,2.992161
2.283879,2.998074,2.275751,2.992967
2.283638,2.998160,2.281392,2.998608
2.283265,2.998251,2.276557,3.000220
2.282963,2.998140,2.278974,2.995385
2.282575,2.998190,2.276557,2.997802
2.282565,2.998276,2.280586,2.993773
2.282444,2.998336,2.281392,3.000220
2.282142,2.998095,2.273333,2.990550
2.281865,2.998069,2.275751,2.996191
2.281840,2.997959,2.281392,2.994579
2.281734,2.998019,2.282198,3.001832
2.281462,2.997747,2.272527,2.989743
2.281331,2.997807,2.281392,2.992967
2.281195,2.997767,2.276557,2.994579
2.281109,2.997646,2.279780,3.001832
2.280767,2.997324,2.270916,2.991355
2.280722,2.997329,2.275751,2.997802
2.280651,2.997218,2.277363,2.994579
2.280384,2.997133,2.282198,2.992967
2.280052,2.996931,2.275751,2.992161
2.279901,2.997002,2.272527,2.994579
2.279704,2.997077,2.274945,2.999414
2.279321,2.996926,2.274139,2.990550
2.278873,2.996835,2.272527,2.994579
2.278676,2.996926,2.276557,2.994579
2.278606,2.996916,2.275751,3.000220
2.278339,2.996725,2.273333,2.990550
2.278097,2.996856,2.278168,2.995385
2.278168,2.996931,2.275751,2.990550
2.278163,2.996981,2.281392,2.998608
2.278007,2.996735,2.277363,2.990550
2.278153,2.996785,2.282198,2.994579
2.278248,2.996830,2.280586,2.994579
2.278394,2.996830,2.286227,2.997802
2.278374,2.996604,2.278168,2.992967
2.278676,2.996735,2.288645,2.995385
2.278969,2.996760,2.291062,2.999414
2.279351,2.996835,2.291868,2.996191
2.279518,2.996835,2.285421,2.999414
2.280056,2.997203,2.294286,2.999414
2.280590,2.997515,2.299121,3.005055
2.281049,2.997646,2.294286,3.001026
2.281406,2.997752,2.295092,3.002637
2.282202,2.998100,2.296703,3.002637
2.282912,2.998417,2.297509,3.003443
2.283537,2.998548,2.296703,3.000220
2.284182,2.998875,2.295092,3.004249
2.285113,2.999177,2.302344,3.002637
2.285960,2.999434,2.307179,3.005055
2.286559,2.999449,2.298315,3.001026
2.287486,2.999762,2.303150,3.003443
2.288201,2.999993,2.299927,3.003443
2.289128,3.000235,2.306374,3.003443
2.289692,3.000230,2.295092,2.997802
2.290654,3.000542,2.299121,3.003443
2.291475,3.000688,2.303956,3.001832
2.292311,3.000885,2.304762,3.001026
2.292865,3.000965,2.295092,3.003443
2.293752,3.001333,2.305568,3.002637
2.294497,3.001615,2.299927,3.003443
2.295051,3.001807,2.299121,2.999414
2.295499,3.001953,2.293480,3.002637
2.296255,3.002285,2.299927,3.001026
2.296799,3.002587,2.298315,3.005861
2.297282,3.002713,2.294286,3.001026
2.297615,3.002925,2.296703,2.999414
2.298179,3.003116,2.298315,3.002637
2.298673,3.003262,2.302344,3.003443
2.298773,3.003126,2.291868,2.994579
2.298970,3.003202,2.294286,3.002637
2.299262,3.003262,2.295897,3.000220
2.299499,3.003318,2.303150,3.003443
2.299353,3.003166,2.294286,2.992967
2.299473,3.003257,2.303956,3.003443
2.299458,3.003202,2.292674,2.999414
2.299352,3.003126,2.304762,2.992967
2.298819,3.002935,2.287033,2.997802
2.298773,3.002950,2.294286,3.002637
2.298567,3.003005,2.295092,3.002637
2.298385,3.002960,2.286227,2.999414
2.297937,3.002889,2.288645,3.003443
2.297831,3.002945,2.295897,2.998608
2.297423,3.002940,2.291868,3.003443
2.297051,3.002804,2.287033,2.994579
2.296507,3.002784,2.288645,3.003443
2.296406,3.002794,2.292674,3.002637
2.296265,3.002829,2.295092,3.004249
2.295887,3.002668,2.285421,2.994579
2.295580,3.002693,2.288645,2.999414
2.295358,3.002673,2.286227,3.001832
2.295202,3.002622,2.295897,3.000220
2.294744,3.002275,2.286227,2.992967
2.294608,3.002265,2.291062,2.999414
2.294411,3.002230,2.288645,2.999414
2.294225,3.002114,2.291868,2.997802
2.293676,3.001796,2.281392,2.994579
2.293429,3.001756,2.283004,2.996191
2.293102,3.001676,2.283004,2.996191
2.292744,3.001560,2.289451,2.997802
2.292140,3.001439,2.282198,2.995385
2.291989,3.001535,2.290257,2.998608
2.291545,3.001595,2.282198,3.003443
2.291092,3.001399,2.281392,2.996191
2.290568,3.001308,2.281392,2.997802
2.290387,3.001177,2.283809,2.995385
2.290191,3.001217,2.288645,3.000220
2.289833,3.000970,2.283004,2.998608
2.289475,3.000965,2.285421,2.997802
2.289506,3.000930,2.286227,2.994579
2.289319,3.000890,2.289451,3.001026
2.288932,3.000583,2.281392,2.991355
2.288665,3.000583,2.291868,2.994579
2.288463,3.000452,2.283809,2.996191
2.288257,3.000230,2.285421,3.001832
2.287914,2.999938,2.280586,2.995385
2.287904,2.999978,2.288645,2.998608
2.287823,2.999877,2.287839,2.998608
2.287702,2.999726,2.293480,2.992967
2.287274,2.999575,2.282198,2.997802
2.287264,2.999616,2.285421,2.995385
2.287093,2.999641,2.289451,3.004249
2.286917,2.999550,2.283809,2.992161
2.286509,2.999520,2.282198,3.000220
2.286514,2.999611,2.288645,3.000220
2.286625,2.999691,2.290257,3.003443
2.286529,2.999510,2.288645,2.995385
2.286378,2.999636,2.286227,3.002637
2.286514,2.999742,2.289451,2.996191
2.286610,2.999837,2.291868,2.999414
2.286524,2.999631,2.284615,2.992967
2.286650,2.999706,2.291062,3.003443
2.286786,2.999646,2.289451,2.994579
2.286826,2.999570,2.287033,2.997802
2.286680,2.999339,2.281392,2.990550
2.286806,2.999485,2.284615,3.002637
2.286776,2.999429,2.283004,2.996191
2.286766,2.999414,2.281392,2.990550
2.286418,2.999303,2.281392,2.995385
2.286524,2.999515,2.285421,2.999414
2.286438,2.999626,2.285421,2.999414
2.286262,2.999500,2.281392,2.995385
2.285945,2.999449,2.283004,2.997802
2.285965,2.999575,2.282198,2.994579
2.285925,2.999606,2.282198,3.001832
2.285673,2.999449,2.279780,2.991355
2.285411,2.999636,2.281392,2.997802
2.285391,2.999721,2.277363,2.992161
2.285265,2.999661,2.284615,3.000220
2.285028,2.999389,2.280586,2.990550
2.284892,2.999364,2.279780,2.994579
2.284736,2.999218,2.280586,2.992161
2.284560,2.999183,2.281392,3.000220
2.284192,2.998855,2.273333,2.990550
2.284101,2.998805,2.277363,2.995385
2.283950,2.998719,2.278974,2.994579
2.283714,2.998472,2.280586,2.994579
2.283094,2.998140,2.275751,2.990550
2.282762,2.998115,2.274945,2.997802
2.282369,2.998069,2.277363,2.994579
2.282001,2.997853,2.274139,2.991355
2.281422,2.997611,2.270916,2.994579
2.281286,2.997606,2.273333,2.993773
2.280903,2.997651,2.279780,3.003443
2.280445,2.997415,2.272527,2.990550
2.279992,2.997369,2.273333,2.999414
2.279805,2.997294,2.277363,2.994579
2.279564,2.997269,2.279780,2.996191
2.279115,2.996976,2.271722,2.988938
2.278884,2.996951,2.276557,2.995385
2.278652,2.996805,2.275751,2.990550
2.278395,2.996699,2.274139,2.992967
2.277982,2.996322,2.270916,2.989743
2.277851,2.996337,2.280586,2.994579
2.277675,2.996176,2.276557,2.990550
2.277504,2.995949,2.278168,2.994579
2.276975,2.995702,2.268498,2.991355
2.276874,2.995788,2.280586,2.992161
2.276647,2.995758,2.273333,2.994579
2.276476,2.995602,2.279780,2.991355
2.276003,2.995506,2.270916,2.994579
2.275857,2.995581,2.272527,2.990550
2.275595,2.995717,2.274139,2.998608
2.275242,2.995632,2.267692,2.988938
2.274834,2.995596,2.269304,2.996191
2.274708,2.995607,2.268498,2.991355
2.274602,2.995561,2.273333,2.995385
2.274290,2.995319,2.267692,2.989743
2.274083,2.995380,2.272527,2.994579
2.273963,2.995330,2.275751,2.992967
2.273902,2.995365,2.278974,2.994579
2.273590,2.995022,2.263663,2.988132
2.273479,2.995032,2.268498,2.995385
2.273383,2.994957,2.266081,2.990550
2.273272,2.994901,2.270110,2.992967
2.272859,2.994564,2.264469,2.990550
2.272708,2.994594,2.269304,2.990550
2.272517,2.994554,2.267692,2.989743
2.272366,2.994438,2.268498,2.990550
2.271973,2.994272,2.266081,2.989743
2.271943,2.994362,2.270916,2.990550
2.271761,2.994534,2.270110,2.998608
2.271696,2.994463,2.272527,2.990550
2.271590,2.994493,2.272527,2.996996
2.271852,2.994599,2.277363,2.995385
2.272058,2.994801,2.283004,2.998608
2.272209,2.994740,2.277363,2.990550
2.272396,2.995012,2.284615,2.997802
2.272849,2.995183,2.285421,2.995385
2.273408,2.995390,2.293480,3.002637
2.273751,2.995249,2.283004,2.990550
2.274285,2.995521,2.295897,3.001026
2.274944,2.995682,2.293480,2.997802
2.275720,2.995914,2.297509,3.001026
2.276183,2.995823,2.288645,2.994579
2.277075,2.996135,2.297509,3.001026
2.277851,2.996312,2.292674,3.001026
2.278732,2.996508,2.295897,2.999414
2.279200,2.996684,2.290257,2.998608
2.280052,2.997072,2.301538,3.001026
2.280822,2.997435,2.296703,3.007473
2.281573,2.997687,2.291868,2.997802
2.282227,2.997913,2.292674,3.002637
2.283179,2.998281,2.297509,2.997802
2.284197,2.998674,2.299121,3.005055
2.285008,2.998870,2.295092,3.000220
2.285728,2.999198,2.299121,3.003443
2.286715,2.999550,2.295897,3.001832
2.287773,2.999908,2.299927,3.001026
2.288604,2.999978,2.294286,2.993773
2.289475,3.000361,2.301538,3.002637
2.290362,3.000588,2.295092,3.003443
2.291268,3.000840,2.301538,3.002637
2.291838,3.000784,2.289451,2.996191
2.292513,3.001076,2.291868,3.000220
2.293082,3.001217,2.290257,3.001026
2.293671,3.001363,2.296703,2.995385
2.293817,3.001333,2.285421,2.997802
2.294326,3.001640,2.296703,3.000220
2.294578,3.001802,2.288645,3.003443
2.294789,3.001797,2.288645,2.996191
2.294603,3.001771,2.286227,2.995385
2.294850,3.001968,2.291868,2.998608
2.294905,3.002053,2.292674,3.003443
2.294829,3.002003,2.289451,2.996191
2.294482,3.002023,2.286227,3.002637
2.294527,3.002079,2.290257,2.998608
2.294421,3.002068,2.294286,2.998608
2.294160,3.001827,2.283004,2.990550
2.293842,3.001912,2.286227,2.997802
2.293656,3.001867,2.291062,2.999414
2.293565,3.001776,2.289451,3.000220
2.293162,3.001444,2.285421,2.990550
2.292910,3.001439,2.290257,2.997802
2.292633,3.001323,2.286227,2.993773
2.292331,3.001197,2.289451,2.996191
2.291636,3.000920,2.281392,2.996191
2.291253,3.000940,2.283004,2.997802
2.290830,3.000925,2.283004,2.997802
2.290493,3.000744,2.283809,2.999414
2.289858,3.000608,2.281392,2.996191
2.289531,3.000643,2.286227,2.996191
2.289128,3.000643,2.285421,2.999414
2.288680,3.000376,2.281392,2.990550
2.288221,3.000311,2.281392,2.997802
2.287964,3.000235,2.281392,2.995385
2.287803,3.000270,2.287033,3.001026
2.287446,2.999973,2.281392,2.991355
2.287012,2.999842,2.281392,2.995385
2.286781,2.999721,2.281392,2.994579
2.286438,2.999636,2.281392,2.994579
2.286020,2.999203,2.277363,2.990550
2.285773,2.999147,2.283004,2.994579
2.285587,2.999047,2.281392,2.994579
2.285219,2.998820,2.282198,2.991355
2.284685,2.998533,2.277363,2.993773
2.284484,2.998482,2.277363,2.995385
2.284267,2.998508,2.278974,2.998608
2.283970,2.998407,2.283004,2.991355
2.283507,2.998256,2.275751,2.992161
2.283381,2.998266,2.276557,2.994579
2.283154,2.998276,2.278974,3.001026
2.282973,2.998155,2.278974,2.994579
2.282615,2.998215,2.279780,2.998608
2.282580,2.998291,2.281392,2.996191
2.282500,2.998311,2.283809,2.998608
2.282313,2.998059,2.278168,2.990550
2.282182,2.998059,2.281392,2.998608
2.282142,2.998095,2.278974,2.993773
2.282182,2.998009,2.283809,2.997802
2.281946,2.997742,2.275751,2.988938
2.281845,2.997838,2.281392,2.994579
2.281805,2.997747,2.280586,2.997802
2.281689,2.997601,2.281392,2.995385
2.281397,2.997334,2.275751,2.990550
2.281326,2.997450,2.281392,2.995385
2.281205,2.997485,2.275751,2.992161
2.281049,2.997374,2.277363,2.991355
2.280742,2.997218,2.275751,2.996191
2.280712,2.997339,2.278974,2.990550
2.280616,2.997535,2.280586,3.001832
2.280500,2.997374,2.276557,2.993773
2.280258,2.997299,2.275751,2.996191
2.280309,2.997410,2.278168,2.992967
2.280289,2.997490,2.284615,2.996191
2.280132,2.997269,2.270916,2.990550
2.280072,2.997430,2.280586,2.998608
2.280067,2.997445,2.277363,2.990550
2.279996,2.997415,2.281392,2.995385
2.279699,2.997097,2.270110,2.988938
2.279583,2.997117,2.274139,2.993773
2.279432,2.997087,2.268498,2.991355
2.279382,2.996997,2.277363,2.990550
2.279024,2.996669,2.269304,2.990550
2.278929,2.996619,2.276557,2.991355
2.278652,2.996438,2.274139,2.992967
2.278375,2.996261,2.269304,2.989743
2.277906,2.996060,2.268498,2.990550
2.277655,2.996120,2.270916,2.990550
2.277372,2.996181,2.270916,3.001026
2.277060,2.995984,2.270916,2.990550
2.276637,2.995964,2.269304,2.990550
2.276521,2.995964,2.269304,2.990550
2.276375,2.995848,2.273333,2.996191
2.276033,2.995627,2.268498,2.990550
2.275740,2.995768,2.269304,2.992967
2.275554,2.995707,2.270916,2.992161
2.275504,2.995657,2.274945,2.995385
2.275131,2.995294,2.267692,2.988938
2.274960,2.995274,2.273333,2.993773
2.274703,2.995128,2.269304,2.990550
2.274466,2.994982,2.268498,2.990550
2.273973,2.994614,2.264469,2.988132
2.273746,2.994655,2.270916,2.992967
2.273474,2.994569,2.266081,2.991355
2.273021,2.994418,2.268498,2.990550
2.272583,2.994216,2.266081,2.991355
2.272436,2.994252,2.267692,2.990550
2.272149,2.994282,2.267692,2.996191
2.271918,2.994156,2.270110,2.990550
2.271570,2.994151,2.266081,2.994579
2.271510,2.994176,2.268498,2.990550
2.271414,2.994161,2.270916,2.994579
2.271172,2.993995,2.266886,2.989743
2.270774,2.994050,2.267692,2.991355
2.270739,2.994035,2.268498,2.991355
2.270543,2.994000,2.272527,2.996191
2.270306,2.993803,2.262857,2.989743
2.270175,2.993768,2.268498,2.990550
2.270089,2.993657,2.264469,2.990550
2.270019,2.993557,2.268498,2.992967
2.269606,2.993219,2.262857,2.983297
2.269520,2.993174,2.267692,2.988132
2.269384,2.993093,2.262857,2.990550
2.269142,2.992972,2.266081,2.988938
2.268664,2.992806,2.262857,2.990550
2.268533,2.992902,2.268498,2.990550
2.268372,2.992912,2.266081,2.996191
2.268110,2.992796,2.262857,2.986520
2.267611,2.992731,2.258828,2.990550
2.267566,2.992801,2.264469,2.992161
2.267470,2.992907,2.266081,2.995385
2.267218,2.992766,2.261245,2.988938
2.266976,2.992791,2.264469,2.990550
2.266931,2.992811,2.263663,2.989743
2.266856,2.992826,2.267692,2.991355
2.266574,2.992584,2.262857,2.985714
2.266543,2.992600,2.266081,2.993773
2.266372,2.992514,2.262857,2.989743
2.266226,2.992453,2.268498,2.988938
2.265788,2.992141,2.258022,2.988938
2.265667,2.992146,2.258828,2.988938
2.265465,2.992020,2.261245,2.990550
2.265204,2.991925,2.259634,2.988132
2.264675,2.991723,2.258022,2.990550
2.264539,2.991748,2.263663,2.991355
2.264373,2.991884,2.262857,2.997802
2.264116,2.991834,2.264469,2.986520
2.263884,2.991854,2.259634,2.991355
2.263995,2.991985,2.268498,2.990550
2.264201,2.992207,2.270110,2.999414
2.264378,2.992207,2.273333,2.992161
2.264539,2.992484,2.272527,2.996191
2.265012,2.992766,2.274945,2.994579
2.265476,2.993063,2.281392,2.997802
2.265884,2.993028,2.281392,2.994579
2.266508,2.993279,2.282198,3.001832
2.267143,2.993511,2.281392,2.995385
2.267858,2.993763,2.290257,2.994579
2.268342,2.993682,2.281392,2.996996
2.269228,2.994045,2.285421,2.996191
2.270099,2.994287,2.285421,3.001026
2.270790,2.994554,2.285421,2.996191
2.271313,2.994639,2.281392,2.997802
2.272180,2.995052,2.290257,2.998608
2.272965,2.995385,2.289451,3.004249
2.273716,2.995677,2.286227,2.992967
2.274421,2.995964,2.287033,3.001832
2.275373,2.996442,2.289451,2.996191
2.276269,2.996825,2.288645,3.003443
2.276964,2.997002,2.281392,2.997802
2.277609,2.997334,2.287033,3.001026
2.278475,2.997661,2.286227,2.999414
2.279296,2.998024,2.295897,2.998608
2.279961,2.998110,2.284615,2.992967
2.280923,2.998452,2.287033,2.998608
2.281800,2.998754,2.281392,2.999414
2.282706,2.999001,2.295092,2.995385
2.283316,2.998946,2.281392,2.992161
2.284111,2.999298,2.287839,2.997802
2.284716,2.999475,2.282198,2.994579
2.285194,2.999540,2.285421,2.994579
2.285371,2.999535,2.280586,2.990550
2.285819,2.999797,2.285421,2.998608
2.286176,2.999923,2.283004,2.998608
2.286413,2.999888,2.278974,2.994579
2.286474,2.999943,2.283809,3.001832
2.286665,3.000145,2.286227,3.000220
2.286776,3.000331,2.285421,3.003443
2.286801,3.000255,2.283004,2.993773
2.286705,3.000286,2.283809,3.002637
2.286806,3.000417,2.282198,2.997802
2.286816,3.000487,2.291062,3.000220
2.286604,3.000210,2.281392,2.992967
2.286589,3.000255,2.287033,3.001026
2.286544,3.000260,2.287033,2.998608
2.286544,3.000205,2.286227,3.001832
2.286257,2.999988,2.279780,2.990550
2.286166,2.999918,2.282198,2.996996
2.285914,2.999787,2.279780,2.994579
2.285698,2.999570,2.287033,2.992967
2.285235,2.999329,2.276557,2.991355
2.285129,2.999339,2.281392,2.994579
2.284902,2.999364,2.278974,2.998608
2.284781,2.999233,2.281392,2.991355
2.284394,2.999102,2.276557,2.995385
2.284313,2.999157,2.279780,2.994579
2.283960,2.999183,2.276557,2.999414
2.283739,2.998986,2.277363,2.992967
2.283356,2.998936,2.276557,2.998608
2.283265,2.998936,2.281392,2.992161
2.283185,2.998865,2.282198,2.999414
2.282998,2.998613,2.277363,2.991355
2.282862,2.998654,2.278974,2.998608
2.282716,2.998583,2.278168,2.992161
2.282515,2.998533,2.279780,3.001832
2.282097,2.998135,2.272527,2.990550
2.282016,2.998044,2.278168,2.993773
2.281789,2.997853,2.274139,2.990550
2.281578,2.997661,2.278974,2.990550
2.281024,2.997334,2.270110,2.990550
2.280822,2.997339,2.278168,2.995385
2.280465,2.997248,2.277363,2.993773
2.280183,2.997042,2.276557,2.992967
2.279634,2.996800,2.272527,2.992967
2.279397,2.996921,2.278974,2.992967
2.279050,2.996906,2.277363,2.998608
2.278717,2.996689,2.272527,2.992967
2.278269,2.996674,2.272527,2.999414
2.278072,2.996654,2.276557,2.991355
2.277982,2.996679,2.281392,2.998608
2.277730,2.996407,2.272527,2.989743
2.277544,2.996503,2.272527,2.997802
2.277493,2.996437,2.270916,2.992161
2.277448,2.996402,2.280586,2.993773
2.277141,2.996050,2.269304,2.990550
2.277040,2.996100,2.277363,2.997802
2.276904,2.995984,2.270916,2.994579
2.276894,2.995873,2.281392,2.990550
2.276516,2.995642,2.268498,2.990550
2.276496,2.995712,2.281392,2.996191
2.276370,2.995742,2.275751,2.994579
2.276264,2.995647,2.273333,2.990550
2.275851,2.995526,2.270110,2.991355
2.275665,2.995617,2.270110,2.993773
2.275474,2.995732,2.274139,3.001026
2.275327,2.995632,2.270110,2.990550
2.275025,2.995657,2.269304,2.994579
2.274975,2.995793,2.269304,2.990550
2.274985,2.995853,2.275751,2.994579
2.274789,2.995687,2.270110,2.990550
2.274597,2.995753,2.271722,2.992967
2.274643,2.995727,2.270110,2.990550
2.274602,2.995753,2.279780,2.998608
2.274426,2.995501,2.266886,2.990550
2.274396,2.995586,2.271722,2.991355
2.274381,2.995571,2.268498,2.990550
2.274355,2.995400,2.276557,2.991355
2.274053,2.995098,2.266081,2.989743
2.274083,2.995103,2.275751,2.991355
2.273887,2.994982,2.268498,2.992967
2.273680,2.994821,2.269304,2.990550
2.273257,2.994685,2.264469,2.992967
2.273061,2.994755,2.270110,2.992161
2.272779,2.994770,2.269304,2.995385
2.272487,2.994655,2.268498,2.989743
2.272114,2.994720,2.268498,2.990550
2.272018,2.994715,2.266886,2.990550
2.271923,2.994725,2.269304,2.995385
2.271620,2.994498,2.265275,2.986520
2.271228,2.994503,2.266081,2.994579
2.271182,2.994468,2.266886,2.990550
2.271041,2.994438,2.271722,2.992967
2.270679,2.994095,2.262857,2.986520
2.270467,2.994060,2.270110,2.990550
2.270366,2.993939,2.266081,2.990550
2.270301,2.993834,2.271722,2.990550
2.269978,2.993546,2.262857,2.989743
2.269943,2.993541,2.269304,2.990550
2.269853,2.993405,2.267692,2.990550
2.269742,2.993280,2.267692,2.990550
2.269097,2.993179,2.260440,2.988938
2.268961,2.993274,2.268498,2.991355
2.268805,2.993436,2.264469,2.999414
2.268558,2.993345,2.260440,2.985714
2.268256,2.993285,2.264469,2.990550
2.268165,2.993330,2.266081,2.990550
2.268039,2.993279,2.268498,2.994579
2.267793,2.993103,2.260440,2.986520
2.267536,2.993179,2.262857,2.993773
2.267435,2.993184,2.262051,2.990550
2.267279,2.993138,2.268498,2.990550
2.266967,2.992897,2.260440,2.984908
2.266911,2.992942,2.264469,2.992161
2.266730,2.992856,2.262857,2.988938
2.266689,2.992761,2.263663,2.987326
2.266332,2.992408,2.258022,2.985714
2.266151,2.992438,2.266081,2.988938
2.265924,2.992247,2.259634,2.988938
2.265843,2.992217,2.264469,2.988132
2.265360,2.991980,2.257216,2.985714
2.265234,2.992046,2.257216,2.990550
2.265047,2.992187,2.260440,2.994579
2.264740,2.992076,2.257216,2.988938
2.264237,2.991995,2.257216,2.990550
2.264166,2.992081,2.258022,2.989743
2.264091,2.992247,2.262857,2.996191
2.263814,2.992166,2.257216,2.986520
2.263607,2.992212,2.260440,2.990550
2.263562,2.992197,2.260440,2.990550
2.263431,2.992247,2.266886,2.992161
2.263179,2.992051,2.258022,2.988132
2.263118,2.992071,2.264469,2.992967
2.263083,2.991995,2.260440,2.989743
2.263023,2.991879,2.266081,2.989743
2.262675,2.991552,2.255605,2.987326
2.262489,2.991582,2.262051,2.989743
2.262272,2.991481,2.258022,2.990550
2.262086,2.991376,2.260440,2.986520
2.261572,2.991230,2.254799,2.986520
2.261366,2.991260,2.257216,2.986520
2.261073,2.991345,2.258022,2.990550
2.260796,2.991245,2.252381,2.984908
2.260363,2.991204,2.254799,2.986520
2.260288,2.991270,2.255605,2.988938
2.260046,2.991315,2.255605,2.990550
2.259839,2.991199,2.255605,2.983297
2.259557,2.991270,2.254799,2.989743
2.259578,2.991381,2.258022,2.986520
2.259668,2.991421,2.262051,2.990550
2.259537,2.991270,2.255605,2.983297
2.259482,2.991290,2.260440,2.990550
2.259633,2.991320,2.263663,2.990550
2.259865,2.991411,2.270110,2.991355
2.259895,2.991174,2.260440,2.989743
2.260283,2.991250,2.267692,2.991355
2.260736,2.991265,2.268498,2.992967
2.261290,2.991315,2.273333,2.989743
2.261451,2.991214,2.268498,2.990550
2.262071,2.991476,2.282198,2.991355
2.262615,2.991753,2.280586,2.995385
2.263123,2.991884,2.277363,2.991355
2.263511,2.991990,2.278168,2.992967
2.264237,2.992267,2.281392,2.996191
2.264806,2.992559,2.281392,3.003443
2.265516,2.992695,2.278168,2.992967
2.266060,2.993068,2.283809,3.001026
2.266876,2.993360,2.283809,2.999414
2.267772,2.993703,2.285421,2.998608
2.268472,2.993713,2.281392,2.992967
2.269278,2.994025,2.281392,2.998608
2.270140,2.994342,2.281392,2.994579
2.271056,2.994634,2.283809,2.996996
2.271746,2.994594,2.278974,2.989743
2.272608,2.994972,2.283809,2.992161
2.273454,2.995234,2.281392,2.997802
2.274290,2.995425,2.281392,2.992967
2.274874,2.995460,2.277363,2.994579
2.275710,2.995788,2.281392,2.996996
2.276451,2.996105,2.281392,2.996191
2.277115,2.996206,2.281392,2.990550
2.277574,2.996377,2.278974,2.997802
2.278334,2.996730,2.281392,2.992967
2.278893,2.997102,2.277363,3.003443
2.279362,2.997188,2.278168,2.992161
2.279669,2.997405,2.278974,2.999414
2.280127,2.997566,2.277363,2.992967
2.280566,2.997853,2.283004,2.997802
2.280742,2.997802,2.277363,2.990550
2.280807,2.998019,2.279780,2.992967
2.280989,2.998095,2.277363,2.996191
2.281130,2.998049,2.281392,2.997802
2.280908,2.997752,2.272527,2.990550
2.280959,2.997807,2.281392,2.996191
2.280933,2.997792,2.278974,2.993773
2.280797,2.997666,2.280586,2.992967
2.280450,2.997440,2.270916,2.990550
2.280304,2.997535,2.273333,2.992967
2.280183,2.997515,2.274139,2.996191
2.279992,2.997369,2.273333,2.991355
2.279579,2.997193,2.270110,2.992967
2.279422,2.997228,2.276557,2.990550
2.279160,2.997314,2.278974,3.001026
2.278843,2.997067,2.273333,2.990550
2.278455,2.997047,2.270916,2.997802
2.278309,2.997057,2.273333,2.992967
2.278229,2.997017,2.281392,2.997802
2.277866,2.996765,2.269304,2.989743
2.277644,2.996775,2.276557,2.994579
2.277478,2.996810,2.270916,2.993773
2.277277,2.996674,2.277363,2.992161
2.276864,2.996322,2.266886,2.990550
2.276657,2.996347,2.270916,2.989743
2.276405,2.996165,2.268498,2.992161
2.276184,2.996004,2.271722,2.988938
2.275735,2.995657,2.265275,2.988938
2.275458,2.995652,2.267692,2.992967
2.275171,2.995551,2.269304,2.991355
2.274849,2.995450,2.266081,2.990550
2.274360,2.995198,2.268498,2.990550
2.274134,2.995299,2.264469,2.993773
2.273766,2.995304,2.272527,2.995385
2.273504,2.995153,2.268498,2.990550
2.273081,2.995183,2.268498,2.991355
2.272950,2.995259,2.268498,2.993773
2.272885,2.995249,2.272527,2.995385
2.272567,2.995037,2.265275,2.990550
2.272356,2.995123,2.272527,2.992161
2.272290,2.995073,2.272527,2.990550
2.272250,2.995052,2.273333,2.995385
2.271963,2.994720,2.266886,2.982491
2.271832,2.994801,2.271722,2.991355
2.271726,2.994770,2.269304,2.991355
2.271635,2.994745,2.272527,2.988938
2.271268,2.994433,2.266081,2.990550
2.271227,2.994493,2.277363,2.991355
2.271061,2.994312,2.270110,2.992161
2.270935,2.994216,2.273333,2.990550
2.270532,2.994035,2.263663,2.991355
2.270598,2.994111,2.272527,2.992161
2.270447,2.994277,2.272527,2.998608
2.270391,2.994176,2.266886,2.989743
2.270205,2.994226,2.268498,2.992161
2.270331,2.994352,2.269304,2.995385
2.270447,2.994463,2.272527,3.003443
2.270356,2.994408,2.268498,2.990550
2.270296,2.994458,2.272527,2.993773
2.270381,2.994574,2.270110,2.990550
2.270603,2.994614,2.275751,2.990550
2.270568,2.994418,2.268498,2.986520
2.270628,2.994438,2.272527,2.993773
2.270663,2.994367,2.266081,2.990550
2.270704,2.994322,2.268498,2.990550
2.270613,2.994070,2.266886,2.987326
2.270653,2.994131,2.267692,2.992161
2.270653,2.994075,2.267692,2.991355
2.270714,2.993985,2.269304,2.991355
2.270250,2.993824,2.265275,2.990550
2.270145,2.993894,2.266886,2.988132
2.269978,2.993970,2.266081,2.992161
2.269732,2.993894,2.266081,2.987326
2.269419,2.993793,2.264469,2.990550
2.269389,2.993874,2.262051,2.990550
2.269283,2.993949,2.264469,2.992967
2.269082,2.993773,2.260440,2.988938
2.268815,2.993793,2.266081,2.995385
2.268785,2.993818,2.260440,2.993773
2.268744,2.993889,2.268498,2.996191
2.268528,2.993768,2.259634,2.987326
2.268427,2.993818,2.266886,2.988938
2.268342,2.993768,2.262857,2.989743
2.268110,2.993688,2.268498,2.988938
2.267722,2.993310,2.257216,2.988938
2.267475,2.993239,2.262857,2.990550
2.267158,2.993073,2.257216,2.989743
2.266790,2.992907,2.256410,2.988938
2.266181,2.992630,2.251575,2.988132
2.265914,2.992605,2.255605,2.990550
2.265551,2.992655,2.258022,2.990550
2.265179,2.992479,2.264469,2.984908
2.264569,2.992348,2.255605,2.988132
2.264302,2.992323,2.258828,2.989743
2.264005,2.992393,2.258022,2.995385
2.263602,2.992267,2.255605,2.988132
2.263159,2.992227,2.255605,2.990550
2.262902,2.992192,2.256410,2.989743
2.262660,2.992166,2.261245,2.991355
2.262222,2.991864,2.254799,2.984908
2.261890,2.991879,2.255605,2.992967
2.261703,2.991854,2.255605,2.990550
2.261537,2.991738,2.261245,2.988938
2.261149,2.991386,2.253993,2.981685
2.260978,2.991396,2.255605,2.988938
2.260681,2.991290,2.255605,2.989743
2.260343,2.991179,2.253187,2.988938
2.259885,2.990867,2.250769,2.983297
2.259648,2.990842,2.258022,2.988938
2.259376,2.990912,2.254799,2.990550
2.259054,2.990796,2.254799,2.986520
2.258586,2.990605,2.253993,2.986520
2.258379,2.990610,2.255605,2.988938
2.258082,2.990650,2.256410,2.995385
2.257744,2.990540,2.252381,2.982491
2.257412,2.990570,2.253187,2.990550
2.257281,2.990550,2.257216,2.986520
2.257205,2.990595,2.262857,2.990550
2.256989,2.990404,2.249963,2.981685
2.256868,2.990378,2.255605,2.989743
2.256808,2.990348,2.251575,2.988132
2.256702,2.990373,2.259634,2.989743
2.256324,2.990051,2.253993,2.983297
2.256254,2.990081,2.255605,2.988132
2.256168,2.990006,2.255605,2.985714
2.256047,2.989950,2.259634,2.985714
2.255659,2.989704,2.248352,2.986520
2.255629,2.989774,2.253187,2.985714
2.255478,2.989799,2.254799,2.988132
2.255266,2.989719,2.256410,2.985714
2.254884,2.989638,2.244322,2.986520
2.254828,2.989698,2.255605,2.988938
2.254611,2.989734,2.253187,2.990550
2.254385,2.989613,2.249963,2.985714
2.254133,2.989729,2.253187,2.990550
2.254088,2.989814,2.248352,2.988132
2.254037,2.989840,2.256410,2.990550
2.253806,2.989598,2.250769,2.980073
2.253680,2.989578,2.249963,2.984908
2.253594,2.989568,2.250769,2.984102
2.253554,2.989542,2.255605,2.989743
2.253242,2.989265,2.246740,2.980073
2.253126,2.989331,2.253993,2.989743
2.253045,2.989296,2.244322,2.988938
2.253040,2.989265,2.250769,2.982491
2.252743,2.989003,2.245128,2.985714
2.252763,2.989089,2.253187,2.990550
2.252758,2.989074,2.253187,2.987326
2.252813,2.989039,2.254799,2.988938
2.252668,2.988993,2.254799,2.986520
2.252934,2.989175,2.262857,2.989743
2.253136,2.989482,2.261245,2.994579
2.253357,2.989557,2.262857,2.989743
2.253624,2.989653,2.263663,2.993773
2.254239,2.989870,2.266886,2.991355
2.254874,2.990117,2.273333,2.999414
2.255327,2.990172,2.266886,2.988132
2.255805,2.990449,2.268498,2.991355
2.256596,2.990691,2.269304,2.992967
2.257261,2.990927,2.273333,2.995385
2.257765,2.990907,2.267692,2.988938
2.258606,2.991134,2.274139,2.997802
2.259411,2.991330,2.274139,2.994579
2.260217,2.991562,2.278974,2.990550
2.260751,2.991607,2.269304,2.992967
2.261607,2.991940,2.277363,2.993773
2.262423,2.992141,2.272527,2.998608
2.263204,2.992297,2.277363,2.992161
2.263703,2.992418,2.273333,2.993773
2.264488,2.992766,2.278974,2.994579
2.265093,2.993159,2.268498,3.001832
2.265682,2.993330,2.267692,2.989743
2.266161,2.993647,2.269304,2.992161
2.266936,2.993904,2.272527,2.991355
2.267782,2.994216,2.274139,3.000220
2.268331,2.994252,2.269304,2.990550
2.268820,2.994503,2.270916,2.995385
2.269540,2.994730,2.268498,2.994579
2.270150,2.995017,2.274139,2.997802
2.270502,2.995027,2.268498,2.987326
2.270955,2.995254,2.270916,2.991355
2.271419,2.995370,2.268498,2.992967
2.271696,2.995465,2.270916,2.987326
2.271761,2.995254,2.264469,2.988132
2.271963,2.995355,2.266886,2.994579
2.272048,2.995400,2.267692,2.992161
2.272013,2.995365,2.263663,2.990550
2.271660,2.995214,2.262857,2.990550
2.271625,2.995314,2.264469,2.992161
2.271509,2.995370,2.267692,2.998608
2.271252,2.995254,2.262857,2.988132
2.270920,2.995188,2.261245,2.991355
2.270910,2.995209,2.267692,2.994579
2.270698,2.995304,2.266081,2.994579
2.270336,2.995098,2.266886,2.987326
2.269918,2.995123,2.269304,2.990550
2.269762,2.995073,2.266081,2.990550
2.269480,2.995057,2.268498,2.992967
2.268976,2.994740,2.262857,2.985714
2.268613,2.994710,2.262857,2.988938
2.268331,2.994599,2.265275,2.990550
2.268125,2.994498,2.266081,2.990550
2.267651,2.994146,2.255605,2.988938
2.267475,2.994055,2.267692,2.987326
2.267243,2.993829,2.265275,2.989743
2.266977,2.993687,2.265275,2.986520
2.266337,2.993380,2.258828,2.988132
2.266045,2.993421,2.262857,2.990550
2.265702,2.993395,2.258022,2.997802
2.265279,2.993229,2.255605,2.988938
2.264786,2.993013,2.255605,2.990550
2.264599,2.992997,2.260440,2.987326
2.264352,2.993033,2.258022,2.991355
2.263929,2.992811,2.255605,2.988132
2.263562,2.992726,2.257216,2.990550
2.263350,2.992670,2.258022,2.988938
2.263315,2.992635,2.263663,2.990550
2.263048,2.992413,2.256410,2.985714
2.262932,2.992514,2.263663,2.988132
2.262816,2.992418,2.258022,2.988938
2.262675,2.992267,2.262857,2.984908
2.262277,2.991960,2.255605,2.982491
2.262096,2.991960,2.260440,2.985714
2.261910,2.991864,2.259634,2.988132
2.261723,2.991769,2.261245,2.988132
2.261300,2.991542,2.255605,2.986520
2.261159,2.991572,2.258828,2.989743
2.260963,2.991617,2.259634,2.991355
2.260736,2.991492,2.255605,2.984102
2.260358,2.991295,2.255605,2.986520
2.260253,2.991345,2.258022,2.987326
2.260147,2.991366,2.258828,2.992967
2.259945,2.991250,2.256410,2.985714
2.259633,2.991270,2.256410,2.993773
2.259608,2.991280,2.260440,2.988132
2.259532,2.991305,2.267692,2.990550
2.259271,2.991139,2.255605,2.982491
2.259230,2.991164,2.260440,2.988132
2.259225,2.991149,2.258828,2.989743
2.259361,2.991104,2.262857,2.989743
2.259195,2.990887,2.255605,2.981685
2.259311,2.990943,2.258828,2.989743
2.259291,2.990852,2.258022,2.988132
2.259230,2.990812,2.255605,2.988132
2.258933,2.990575,2.252381,2.984908
2.258868,2.990625,2.258022,2.987326
2.258767,2.990716,2.253187,2.988938
2.258641,2.990640,2.255605,2.986520
2.258173,2.990499,2.251575,2.985714
2.258017,2.990494,2.254799,2.987326
2.257795,2.990424,2.254799,2.990550
2.257518,2.990318,2.248352,2.985714
2.257261,2.990358,2.254799,2.990550
2.257216,2.990368,2.252381,2.988938
2.257196,2.990383,2.256410,2.989743
2.256858,2.990116,2.249157,2.983297
2.256631,2.990172,2.250769,2.987326
2.256435,2.990076,2.252381,2.984908
2.256304,2.989925,2.259634,2.989743
2.255942,2.989527,2.249963,2.983297
2.255680,2.989542,2.253187,2.988938
2.255594,2.989437,2.249963,2.985714
2.255433,2.989270,2.255605,2.980879
2.254924,2.988978,2.242711,2.980879
2.254828,2.988958,2.246740,2.985714
2.254617,2.988963,2.249963,2.988132
2.254360,2.988792,2.253187,2.984102
2.253882,2.988686,2.245128,2.985714
2.253751,2.988716,2.247546,2.989743
2.253443,2.988772,2.253993,2.992161
2.253217,2.988621,2.249157,2.982491
2.252784,2.988580,2.250769,2.988132
2.252622,2.988565,2.249963,2.986520
2.252476,2.988595,2.255605,2.990550
2.252169,2.988394,2.250769,2.982491
2.251983,2.988404,2.251575,2.984908
2.251847,2.988399,2.249963,2.988938
2.251842,2.988369,2.255605,2.984908
2.251560,2.988051,2.245934,2.979267
2.251479,2.988097,2.253187,2.981685
2.251403,2.988046,2.249963,2.986520
2.251323,2.987956,2.255605,2.982491
2.250985,2.987709,2.237070,2.984908
2.250915,2.987764,2.246740,2.984908
2.250703,2.987744,2.244322,2.986520
2.250507,2.987628,2.243516,2.983297
2.250069,2.987482,2.246740,2.978462
2.249963,2.987603,2.249963,2.983297
2.249646,2.987578,2.246740,2.990550
2.249364,2.987442,2.243516,2.981685
2.249046,2.987528,2.243516,2.983297
2.248946,2.987603,2.244322,2.984908
2.249016,2.987603,2.247546,2.990550
2.248694,2.987442,2.244322,2.979267
2.248503,2.987457,2.247546,2.987326
2.248503,2.987487,2.245128,2.978462
2.248427,2.987518,2.253187,2.986520
2.248160,2.987150,2.241099,2.977656
2.248100,2.987190,2.241905,2.979267
2.248009,2.987079,2.245128,2.984908
2.247893,2.986913,2.245128,2.983297
2.247566,2.986646,2.240293,2.981685
2.247339,2.986682,2.243516,2.984102
2.247133,2.986641,2.245128,2.984908
2.246850,2.986470,2.244322,2.980879
2.246317,2.986269,2.237070,2.982491
2.246196,2.986309,2.240293,2.980879
2.245919,2.986339,2.241905,2.986520
2.245632,2.986193,2.240293,2.982491
2.245299,2.986213,2.241905,2.986520
2.245224,2.986319,2.242711,2.982491
2.245173,2.986324,2.247546,2.988938
2.244932,2.986102,2.240293,2.979267
2.244685,2.986148,2.245128,2.985714
2.244639,2.986163,2.241099,2.985714
2.244569,2.986168,2.251575,2.982491
2.244317,2.985896,2.240293,2.977656
2.244206,2.985916,2.241099,2.988132
2.244141,2.985856,2.237070,2.981685
2.244050,2.985659,2.243516,2.984908
2.243748,2.985362,2.233846,2.980073
2.243708,2.985458,2.239487,2.982491
2.243526,2.985307,2.241905,2.984102
2.243420,2.985196,2.247546,2.980879
2.242892,2.985004,2.234652,2.979267
2.242720,2.985130,2.243516,2.984908
2.242509,2.985266,2.238681,2.990550
2.242257,2.985145,2.234652,2.979267
2.241884,2.985065,2.235458,2.986520
2.241869,2.985231,2.241905,2.980073
2.241849,2.985312,2.242711,2.990550
2.241753,2.985171,2.239487,2.978462
2.241662,2.985362,2.241099,2.986520
2.241804,2.985417,2.245934,2.982491
2.242121,2.985443,2.252381,2.987326
2.242242,2.985281,2.243516,2.980073
2.242650,2.985523,2.253187,2.990550
2.243118,2.985644,2.255605,2.988938
2.243582,2.985704,2.257216,2.986520
2.243924,2.985568,2.253993,2.985714
2.244599,2.985775,2.263663,2.990550
2.245057,2.985861,2.257216,2.988132
2.245576,2.985936,2.260440,2.985714
2.245863,2.985981,2.260440,2.988132
2.246609,2.986339,2.259634,2.990550
2.247268,2.986697,2.266081,2.998608
2.247898,2.986853,2.260440,2.990550
2.248472,2.986979,2.263663,2.990550
2.249293,2.987336,2.263663,2.990550
2.250109,2.987694,2.266886,2.992161
2.250885,2.987850,2.265275,2.988132
2.251610,2.988278,2.264469,2.991355
2.252562,2.988636,2.266886,2.990550
2.253584,2.988983,2.275751,2.992967
2.254440,2.989165,2.263663,2.988938
2.255292,2.989573,2.267692,2.992161
2.256269,2.989824,2.265275,2.991355
2.257271,2.990026,2.269304,2.997802
2.257946,2.990011,2.259634,2.988132
2.258862,2.990328,2.265275,2.991355
2.259724,2.990524,2.263663,2.989743
2.260514,2.990671,2.268498,2.988132
2.260917,2.990711,2.260440,2.989743
2.261648,2.991079,2.266081,2.990550
2.262313,2.991411,2.263663,2.990550
2.262882,2.991537,2.267692,2.990550
2.263199,2.991693,2.257216,2.990550
2.263743,2.991935,2.264469,2.989743
2.264161,2.992081,2.266081,2.992161
2.264347,2.992096,2.262857,2.988132
2.264438,2.992272,2.262857,2.996191
2.264700,2.992464,2.264469,2.992161
2.264886,2.992640,2.268498,2.990550
2.264947,2.992514,2.261245,2.983297
2.265103,2.992640,2.263663,2.991355
2.265224,2.992685,2.265275,2.988132
2.265284,2.992680,2.269304,2.996191
2.265062,2.992398,2.260440,2.988938
2.265027,2.992449,2.264469,2.990550
2.264866,2.992373,2.259634,2.989743
2.264750,2.992302,2.262857,2.985714
2.264332,2.992091,2.255605,2.984908
2.264302,2.992121,2.260440,2.989743
2.264181,2.992136,2.259634,2.990550
2.263884,2.992035,2.263663,2.986520
2.263305,2.991834,2.255605,2.985714
2.262997,2.991834,2.260440,2.989743
2.262670,2.991733,2.258828,2.991355
2.262323,2.991607,2.255605,2.986520
2.261899,2.991527,2.254799,2.988938
2.261804,2.991547,2.258828,2.989743
2.261708,2.991567,2.261245,2.991355
2.261355,2.991310,2.251575,2.980073
2.261089,2.991310,2.255605,2.986520
2.260983,2.991280,2.252381,2.988132
2.260797,2.991189,2.258828,2.989743
2.260368,2.990802,2.249963,2.981685
2.260127,2.990776,2.255605,2.988132
2.259855,2.990640,2.255605,2.985714
2.259643,2.990504,2.255605,2.982491
2.259125,2.990273,2.247546,2.980073
2.258953,2.990263,2.254799,2.984908
2.258747,2.990248,2.253187,2.984908
2.258485,2.990076,2.247546,2.982491
2.257996,2.989855,2.251575,2.984908
2.257805,2.989865,2.253187,2.984908
2.257477,2.989835,2.255605,2.990550
2.257160,2.989628,2.250769,2.985714
2.256742,2.989598,2.252381,2.990550
2.256661,2.989557,2.254799,2.986520
2.256556,2.989522,2.259634,2.990550
2.256319,2.989306,2.253187,2.983297
2.256097,2.989316,2.254799,2.990550
2.256057,2.989255,2.255605,2.988132
2.255840,2.989180,2.255605,2.988938
2.255538,2.988862,2.253187,2.984908
2.255543,2.988923,2.255605,2.988132
2.255533,2.988857,2.255605,2.987326
2.255488,2.988777,2.255605,2.990550
2.255226,2.988590,2.249963,2.987326
2.255226,2.988676,2.252381,2.988132
2.255176,2.988691,2.257216,2.987326
2.255055,2.988540,2.251575,2.985714
2.254642,2.988434,2.251575,2.986520
2.254667,2.988616,2.255605,2.987326
2.254561,2.988711,2.253187,2.989743
2.254496,2.988611,2.254799,2.985714
2.254350,2.988656,2.254799,2.985714
2.254415,2.988757,2.253993,2.984102
2.254486,2.988842,2.256410,2.991355
2.254450,2.988757,2.253187,2.982491
2.254380,2.988878,2.254799,2.990550
2.254541,2.988933,2.255605,2.983297
2.254652,2.988923,2.255605,2.989743
2.254581,2.988661,2.254799,2.980073
2.254596,2.988706,2.255605,2.990550
2.254571,2.988681,2.248352,2.984908
2.254617,2.988590,2.255605,2.982491
2.254279,2.988364,2.243516,2.983297
2.254249,2.988439,2.247546,2.985714
2.254088,2.988404,2.251575,2.985714
2.254053,2.988414,2.254799,2.982491
2.253776,2.988303,2.245128,2.984908
2.253705,2.988389,2.246740,2.984908
2.253549,2.988434,2.247546,2.990550
2.253337,2.988308,2.245128,2.980073
2.252940,2.988334,2.243516,2.986520
2.252834,2.988414,2.249963,2.986520
2.252758,2.988374,2.250769,2.986520
2.252436,2.988157,2.246740,2.980073
2.252194,2.988193,2.246740,2.983297
2.252088,2.988203,2.247546,2.980073
2.252033,2.988132,2.249963,2.988132
2.251690,2.987840,2.243516,2.977656
2.251479,2.987855,2.249963,2.988132
2.251308,2.987704,2.242711,2.982491
2.251101,2.987593,2.248352,2.981685
2.250638,2.987256,2.242711,2.978462
2.250341,2.987251,2.245934,2.984908
2.250003,2.987115,2.243516,2.984908
2.249751,2.986918,2.248352,2.979267
2.249202,2.986702,2.238681,2.980879
2.248935,2.986712,2.241099,2.983297
2.248543,2.986752,2.245128,2.988132
2.248084,2.986530,2.239487,2.980073
2.247525,2.986435,2.240293,2.982491
2.247263,2.986475,2.243516,2.983297
2.247001,2.986500,2.242711,2.988938
2.246689,2.986264,2.240293,2.981685
2.246271,2.986395,2.238681,2.983297
2.246236,2.986379,2.241905,2.981685
2.246135,2.986420,2.248352,2.985714
2.245737,2.986117,2.238681,2.978462
2.245410,2.986102,2.241099,2.984908
2.245123,2.986037,2.238681,2.986520
2.244866,2.985981,2.241905,2.978462
2.244417,2.985609,2.234652,2.979267
2.244206,2.985639,2.242711,2.984102
2.244004,2.985498,2.238681,2.983297
2.243732,2.985322,2.244322,2.979267
2.243153,2.985130,2.234652,2.978462
2.242997,2.985171,2.237875,2.979267
2.242735,2.985216,2.237070,2.985714
2.242393,2.985025,2.237070,2.980073
2.241914,2.984984,2.230623,2.981685
2.241768,2.985080,2.238681,2.982491
2.241536,2.985206,2.237070,2.989743
2.241315,2.985090,2.234652,2.981685
2.241043,2.985145,2.233846,2.984908
2.240972,2.985231,2.238681,2.979267
2.240987,2.985276,2.241905,2.985714
2.240831,2.985075,2.238681,2.977656
2.240695,2.985155,2.234652,2.984908
2.240620,2.985095,2.237875,2.980073
2.240549,2.985075,2.241099,2.980073
2.240222,2.984758,2.237875,2.977656
2.240257,2.984758,2.240293,2.981685
2.240141,2.984742,2.233846,2.982491
2.239960,2.984617,2.240293,2.980073
2.239506,2.984395,2.230623,2.977656
2.239381,2.984465,2.240293,2.982491
2.239194,2.984465,2.237070,2.983297
2.238948,2.984360,2.235458,2.978462
2.238469,2.984209,2.231429,2.980073
2.238484,2.984319,2.233846,2.979267
2.238293,2.984350,2.233846,2.987326
2.238066,2.984148,2.233846,2.978462
2.237835,2.984138,2.233846,2.984908
2.237865,2.984249,2.232234,2.980879
2.237925,2.984324,2.241905,2.985714
2.237794,2.984143,2.234652,2.977656
2.237759,2.984264,2.237070,2.981685
2.237789,2.984209,2.235458,2.978462
2.237825,2.984138,2.241905,2.983297
2.237527,2.983811,2.231429,2.976850
2.237563,2.983901,2.235458,2.985714
2.237507,2.983821,2.237875,2.983297
2.237482,2.983695,2.237070,2.977656
2.237160,2.983393,2.229817,2.977656
2.237135,2.983483,2.229817,2.982491
2.236994,2.983493,2.237875,2.983297
2.236953,2.983352,2.240293,2.979267
2.236626,2.983247,2.232234,2.978462
2.236717,2.983362,2.237070,2.984908
2.236737,2.983508,2.240293,2.989743
2.236858,2.983493,2.240293,2.979267
2.236913,2.983624,2.241099,2.989743
2.237381,2.983750,2.248352,2.987326
2.237804,2.983997,2.255605,2.988132
2.238233,2.983927,2.249963,2.980879
2.238787,2.984193,2.255605,2.985714
2.239527,2.984415,2.250769,2.985714
2.240293,2.984652,2.260440,2.991355
2.240877,2.984657,2.256410,2.983297
2.241627,2.984979,2.258022,2.988938
2.242468,2.985150,2.261245,2.990550
2.243299,2.985337,2.266081,2.985714
2.243828,2.985342,2.255605,2.986520
2.244685,2.985710,2.260440,2.987326
2.245500,2.985946,2.258022,2.986520
2.246125,2.986143,2.259634,2.989743
2.246563,2.986238,2.257216,2.986520
2.247354,2.986616,2.260440,2.990550
2.247988,2.986959,2.259634,2.994579
2.248729,2.987190,2.256410,2.988938
2.249328,2.987573,2.258022,2.989743
2.250290,2.987951,2.258022,2.988132
2.251257,2.988293,2.259634,2.992967
2.251902,2.988339,2.256410,2.988938
2.252627,2.988681,2.261245,2.992161
2.253524,2.989019,2.256410,2.990550
2.254370,2.989255,2.262857,2.990550
2.254974,2.989250,2.257216,2.982491
2.255770,2.989568,2.262857,2.988938
2.256485,2.989769,2.255605,2.988132
2.257175,2.989945,2.261245,2.988938
2.257629,2.989885,2.255605,2.986520
2.258198,2.990142,2.260440,2.990550
2.258631,2.990222,2.257216,2.988132
2.259014,2.990358,2.263663,2.985714
2.259014,2.990363,2.254799,2.988132
2.259235,2.990600,2.255605,2.989743
2.259301,2.990812,2.256410,2.992967
2.259331,2.990796,2.256410,2.987326
2.259145,2.990862,2.255605,2.986520
2.259220,2.990887,2.258828,2.990550
2.259301,2.990968,2.261245,2.991355
2.259160,2.990857,2.255605,2.983297
2.258958,2.990907,2.257216,2.990550
2.259024,2.990927,2.255605,2.988132
2.258928,2.990983,2.262857,2.988938
2.258646,2.990741,2.251575,2.979267
2.258626,2.990766,2.259634,2.988938
2.258581,2.990701,2.253993,2.988132
2.258475,2.990625,2.256410,2.986520
2.258127,2.990313,2.247546,2.980073
2.257966,2.990318,2.254799,2.988132
2.257805,2.990192,2.253187,2.986520
2.257614,2.990041,2.255605,2.985714
2.257039,2.989804,2.246740,2.984908
2.256954,2.989905,2.253187,2.984908
2.256717,2.989960,2.251575,2.990550
2.256425,2.989819,2.251575,2.984908
2.255951,2.989794,2.246740,2.983297
2.255830,2.989804,2.253187,2.981685
2.255614,2.989870,2.253187,2.991355
2.255342,2.989673,2.247546,2.980073
2.254994,2.989683,2.249963,2.987326
2.254843,2.989598,2.245128,2.986520
2.254687,2.989502,2.255605,2.988132
2.254294,2.989190,2.248352,2.980073
2.254042,2.989149,2.253993,2.981685
2.253821,2.989069,2.249963,2.985714
2.253720,2.988933,2.255605,2.983297
2.253287,2.988545,2.242711,2.980879
2.253090,2.988515,2.249157,2.984908
2.252959,2.988359,2.247546,2.984908
2.252844,2.988218,2.255605,2.982491
2.252335,2.987961,2.246740,2.983297
2.252290,2.987971,2.248352,2.984908
2.252073,2.987981,2.246740,2.990550
2.251771,2.987875,2.251575,2.983297
2.251464,2.987779,2.243516,2.988132
2.251378,2.987890,2.250769,2.985714
2.251302,2.987941,2.251575,2.990550
2.251106,2.987729,2.249963,2.982491
2.250879,2.987694,2.247546,2.988938
2.250960,2.987659,2.253993,2.982491
2.250970,2.987699,2.253187,2.990550
2.250688,2.987492,2.248352,2.979267
2.250693,2.987553,2.251575,2.986520
2.250718,2.987563,2.248352,2.986520
2.250698,2.987508,2.253187,2.983297
2.250481,2.987241,2.244322,2.982491
2.250577,2.987306,2.253993,2.988132
2.250542,2.987210,2.247546,2.985714
2.250562,2.987115,2.251575,2.985714
2.250215,2.986908,2.242711,2.984908
2.250310,2.987034,2.245934,2.985714
2.250189,2.987079,2.249157,2.985714
2.250053,2.987044,2.253993,2.984102
2.249746,2.987034,2.245128,2.988132
2.249852,2.987210,2.247546,2.986520
2.249887,2.987372,2.246740,2.989743
2.249772,2.987236,2.245128,2.982491
2.249560,2.987306,2.246740,2.988132
2.249646,2.987382,2.245934,2.984908
2.249782,2.987462,2.254799,2.986520
2.249560,2.987231,2.244322,2.978462
2.249449,2.987241,2.247546,2.988132
2.249439,2.987231,2.244322,2.982491
2.249278,2.987221,2.249157,2.988132
2.248930,2.986908,2.240293,2.979267
2.248925,2.986944,2.246740,2.984908
2.248769,2.986858,2.245128,2.981685
2.248638,2.986672,2.246740,2.983297
2.248150,2.986374,2.234652,2.979267
2.247984,2.986480,2.243516,2.983297
2.247727,2.986556,2.243516,2.985714
2.247369,2.986505,2.249963,2.980073
2.246891,2.986354,2.240293,2.984908
2.246790,2.986430,2.242711,2.982491
2.246437,2.986480,2.241099,2.988938
2.246120,2.986299,2.240293,2.980879
2.245828,2.986359,2.238681,2.986520
2.245717,2.986395,2.241905,2.982491
2.245677,2.986440,2.250769,2.988132
2.245500,2.986193,2.246740,2.977656
2.245198,2.986203,2.239487,2.984908
2.245077,2.986168,2.237875,2.978462
2.244881,2.986012,2.244322,2.989743
2.244513,2.985694,2.239487,2.980073
2.244453,2.985780,2.241099,2.980073
2.244327,2.985699,2.239487,2.982491
2.244151,2.985553,2.245128,2.980073
2.243637,2.985261,2.229817,2.979267
2.243511,2.985352,2.245128,2.983297
2.243345,2.985377,2.237875,2.984908
2.243012,2.985281,2.239487,2.979267
2.242483,2.985125,2.237875,2.984102
2.242363,2.985256,2.244322,2.983297
2.242106,2.985367,2.238681,2.987326
2.241824,2.985231,2.237070,2.982491
2.241431,2.985246,2.237070,2.985714
2.241365,2.985307,2.235458,2.980073
2.241194,2.985286,2.241905,2.983297
2.240957,2.985004,2.233846,2.977656
2.240736,2.985060,2.235458,2.980073
2.240670,2.985055,2.237070,2.981685
2.240529,2.985014,2.238681,2.977656
2.240182,2.984677,2.230623,2.976044
2.240116,2.984667,2.235458,2.978462
2.240036,2.984601,2.237070,2.980073
2.239930,2.984491,2.240293,2.979267
2.239562,2.984193,2.230623,2.979267
2.239446,2.984234,2.242711,2.979267
2.239225,2.984203,2.239487,2.983297
2.238928,2.984012,2.241099,2.979267
2.238348,2.983821,2.230623,2.977656
2.238086,2.983896,2.234652,2.978462
2.237835,2.983997,2.230623,2.985714
2.237558,2.983796,2.232234,2.977656
2.237165,2.983821,2.233846,2.984908
2.237084,2.983846,2.233040,2.978462
2.236943,2.983876,2.241099,2.986520
2.236696,2.983690,2.235458,2.977656
2.236560,2.983836,2.232234,2.982491
2.236530,2.983811,2.232234,2.977656
2.236530,2.983715,2.238681,2.985714
2.236208,2.983383,2.231429,2.977656
2.236208,2.983418,2.238681,2.984908
2.236157,2.983332,2.237070,2.977656
2.236087,2.983181,2.238681,2.980073
2.235699,2.982909,2.229011,2.980073
2.235568,2.982934,2.234652,2.980073
2.235387,2.982844,2.229817,2.977656
2.235170,2.982743,2.232234,2.976850
2.234798,2.982546,2.229011,2.977656
2.234651,2.982652,2.231429,2.979267
2.234430,2.982783,2.230623,2.986520
2.234213,2.982662,2.229011,2.977656
2.233921,2.982617,2.229817,2.980073
2.233946,2.982652,2.229817,2.979267
2.233921,2.982738,2.230623,2.981685
2.233659,2.982572,2.230623,2.976850
2.233408,2.982632,2.229817,2.984908
2.233347,2.982682,2.229817,2.978462
2.233362,2.982662,2.235458,2.979267
2.233135,2.982375,2.230623,2.976850
2.233171,2.982516,2.237070,2.981685
2.233282,2.982511,2.233846,2.981685
2.233634,2.982521,2.237875,2.977656
2.233730,2.982320,2.235458,2.981685
2.234289,2.982607,2.244322,2.986520
2.234833,2.982743,2.249963,2.984908
2.235342,2.982859,2.243516,2.980879
2.235608,2.982869,2.247546,2.982491
2.236238,2.983181,2.253993,2.987326
2.236707,2.983372,2.253187,2.992161
2.237245,2.983493,2.253187,2.981685
2.237633,2.983700,2.250769,2.988132
2.238369,2.984012,2.255605,2.983297
2.239114,2.984244,2.259634,2.991355
2.239724,2.984355,2.254799,2.985714
2.240283,2.984692,2.255605,2.989743
2.241129,2.984939,2.259634,2.989743
2.242050,2.985216,2.258828,2.992161
2.242811,2.985236,2.252381,2.986520
2.243642,2.985579,2.258828,2.991355
2.244508,2.985891,2.255605,2.988938
2.245400,2.986127,2.259634,2.989743
2.246100,2.986087,2.255605,2.986520
2.246971,2.986425,2.253993,2.988132
2.247737,2.986641,2.255605,2.988132
2.248472,2.986868,2.253993,2.984908
2.249011,2.986969,2.253993,2.984908
2.249882,2.987316,2.258022,2.986520
2.250653,2.987638,2.254799,2.990550
2.251433,2.987815,2.253993,2.983297
2.251972,2.988087,2.254799,2.986520
2.252773,2.988439,2.255605,2.986520
2.253514,2.988696,2.254799,2.990550
2.253997,2.988726,2.250769,2.984908
2.254294,2.988938,2.255605,2.988132
2.254828,2.989144,2.254799,2.988132
2.255120,2.989275,2.258022,2.990550
2.255161,2.989144,2.248352,2.980073
2.255312,2.989301,2.256410,2.984908
2.255468,2.989260,2.253993,2.985714
2.255508,2.989159,2.255605,2.986520
2.255307,2.988918,2.245934,2.983297
2.255317,2.988978,2.255605,2.987326
2.255327,2.988928,2.253187,2.984908
2.255246,2.988837,2.255605,2.986520
2.254888,2.988691,2.246740,2.985714
2.254732,2.988782,2.253187,2.988132
2.254591,2.988842,2.248352,2.993773
2.254380,2.988752,2.251575,2.984908
2.254047,2.988666,2.248352,2.983297
2.253926,2.988711,2.251575,2.988132
2.253886,2.988777,2.254799,2.990550
2.253529,2.988515,2.251575,2.982491
2.253292,2.988490,2.249963,2.988132
2.253136,2.988510,2.247546,2.984908
2.253015,2.988530,2.253993,2.986520
2.252733,2.988273,2.243516,2.980073
2.252607,2.988288,2.253187,2.981685
2.252415,2.988182,2.247546,2.982491
2.252259,2.987956,2.250769,2.985714
2.251861,2.987644,2.240293,2.981685
2.251685,2.987573,2.249963,2.982491
2.251443,2.987437,2.244322,2.981685
2.251131,2.987190,2.247546,2.981685
2.250567,2.986943,2.242711,2.980073
2.250376,2.986959,2.241905,2.984908
2.250084,2.987004,2.241905,2.985714
2.249676,2.986818,2.237875,2.977656
2.249288,2.986677,2.243516,2.982491
2.249197,2.986792,2.247546,2.983297
2.249096,2.986762,2.247546,2.988132
2.248764,2.986606,2.245128,2.980073
2.248588,2.986697,2.245128,2.987326
2.248583,2.986707,2.251575,2.985714
2.248567,2.986722,2.250769,2.990550
2.248321,2.986495,2.246740,2.978462
2.248291,2.986586,2.245128,2.988132
2.248119,2.986581,2.247546,2.980879
2.248104,2.986465,2.250769,2.987326
2.247782,2.986112,2.241905,2.979267
2.247681,2.986153,2.246740,2.987326
2.247560,2.986077,2.248352,2.984908
2.247440,2.986022,2.241905,2.983297
2.246956,2.985785,2.237875,2.982491
2.247047,2.985926,2.245128,2.981685
2.246875,2.985951,2.241099,2.985714
2.246739,2.985866,2.248352,2.982491
2.246392,2.985689,2.240293,2.986520
2.246442,2.985730,2.249963,2.979267
2.246326,2.985800,2.242711,2.988938
2.246221,2.985639,2.241099,2.981685
2.245984,2.985861,2.245128,2.986520
2.246055,2.985871,2.244322,2.982491
2.246085,2.985941,2.250769,2.987326
2.245984,2.985730,2.242711,2.976850
2.246186,2.985906,2.247546,2.981685
2.246392,2.985941,2.245934,2.985714
2.246573,2.985941,2.247546,2.989743
2.246392,2.985654,2.241905,2.978462
2.246493,2.985684,2.243516,2.980879
2.246468,2.985563,2.241099,2.981685
2.246463,2.985377,2.243516,2.979267
2.246095,2.985130,2.238681,2.978462
2.246115,2.985241,2.247546,2.984908
2.245863,2.985261,2.240293,2.982491
2.245687,2.985090,2.237875,2.980073
2.245224,2.984949,2.237875,2.981685
2.245173,2.985040,2.243516,2.980879
2.244881,2.985090,2.244322,2.988132
2.244800,2.984858,2.242711,2.978462
2.244483,2.984914,2.237070,2.984908
2.244493,2.985045,2.241099,2.985714
2.244589,2.985095,2.250769,2.986520
2.244372,2.984924,2.240293,2.977656
2.244332,2.985009,2.241905,2.988132
2.244398,2.984954,2.240293,2.983297
2.244377,2.984848,2.242711,2.988132
2.244010,2.984561,2.234652,2.976044
2.243884,2.984601,2.241905,2.980073
2.243818,2.984591,2.237070,2.982491
2.243647,2.984541,2.240293,2.981685
2.243259,2.984254,2.230623,2.976850
2.243229,2.984380,2.235458,2.981685
2.243088,2.984289,2.237070,2.979267
2.242947,2.984214,2.237070,2.978462
2.242509,2.984088,2.233846,2.980073
2.242403,2.984168,2.243516,2.980073
2.241990,2.984224,2.238681,2.988132
2.241698,2.984108,2.236264,2.979267
2.241350,2.984052,2.237070,2.988132
2.241315,2.984163,2.240293,2.980073
2.241295,2.984234,2.245128,2.983297
2.241013,2.984088,2.234652,2.977656
2.240826,2.984138,2.241099,2.980879
2.240796,2.984163,2.235458,2.980073
2.240695,2.984118,2.242711,2.983297
2.240444,2.983785,2.233040,2.978462
2.240338,2.983871,2.241905,2.984908
2.240353,2.983826,2.237070,2.980073
2.240257,2.983710,2.244322,2.975238
2.239980,2.983418,2.232234,2.978462
2.239910,2.983473,2.238681,2.980879
2.239849,2.983443,2.234652,2.982491
2.239698,2.983317,2.229817,2.978462
2.239169,2.983106,2.231429,2.979267
2.238953,2.983106,2.237070,2.977656
2.238585,2.983090,2.230623,2.983297
2.238243,2.982919,2.230623,2.977656
2.237729,2.982995,2.229817,2.979267
2.237678,2.983065,2.233846,2.980073
2.237704,2.983045,2.233040,2.988132
2.237442,2.982824,2.228205,2.976044
2.237165,2.982894,2.232234,2.979267
2.237104,2.982929,2.231429,2.977656
2.236883,2.982934,2.238681,2.985714
2.236580,2.982657,2.229817,2.977656
2.236424,2.982642,2.235458,2.977656
2.236278,2.982562,2.229817,2.978462
2.236112,2.982501,2.234652,2.976850
2.235790,2.982154,2.229817,2.977656
2.235588,2.982199,2.234652,2.981685
2.235361,2.982219,2.234652,2.981685
2.235231,2.982073,2.237070,2.976850
2.234807,2.981957,2.229817,2.977656
2.234677,2.982023,2.229817,2.976850
2.234374,2.982113,2.229817,2.985714
2.234082,2.981972,2.229817,2.977656
2.233730,2.981957,2.229817,2.979267
2.233639,2.982018,2.229817,2.978462
2.233569,2.982048,2.230623,2.984908
2.233292,2.981877,2.229011,2.976044
2.232989,2.981872,2.229817,2.978462
2.232843,2.981856,2.228205,2.977656
2.232758,2.981907,2.232234,2.981685
2.232440,2.981645,2.228205,2.976044
2.232345,2.981635,2.237875,2.980073
2.232289,2.981595,2.229817,2.979267
2.232249,2.981600,2.237070,2.977656
2.232067,2.981333,2.227399,2.976850
2.232083,2.981418,2.235458,2.977656
2.232047,2.981338,2.229011,2.979267
2.231972,2.981252,2.240293,2.975238
2.231619,2.981081,2.227399,2.980073
2.231589,2.981192,2.233846,2.982491
2.231559,2.981297,2.229011,2.986520
2.231448,2.981156,2.229011,2.977656
2.231262,2.981071,2.230623,2.977656
2.231453,2.981136,2.237070,2.979267
2.231594,2.981338,2.235458,2.983297
2.231730,2.981252,2.240293,2.979267
2.232002,2.981408,2.240293,2.984908
2.232526,2.981610,2.249963,2.985714
2.233246,2.981806,2.253187,2.990550
2.233680,2.981816,2.246740,2.977656
2.234309,2.982058,2.254799,2.984908
2.235004,2.982209,2.250769,2.984908
2.235760,2.982380,2.255605,2.990550
2.236389,2.982350,2.249963,2.980073
2.237251,2.982647,2.255605,2.982491
2.238087,2.982823,2.259634,2.986520
2.238948,2.983055,2.256410,2.983297
2.239502,2.983176,2.252381,2.985714
2.240272,2.983534,2.255605,2.988132
2.241023,2.983942,2.255605,2.989743
2.241834,2.984123,2.249157,2.984908
2.242433,2.984344,2.253993,2.986520
2.243304,2.984712,2.254799,2.982491
2.243984,2.985095,2.255605,2.990550
2.244695,2.985256,2.253993,2.983297
2.245395,2.985548,2.253187,2.988132
2.246206,2.985886,2.253187,2.984908
2.247037,2.986238,2.260440,2.991355
2.247752,2.986218,2.250769,2.981685
2.248538,2.986495,2.251575,2.987326
2.249313,2.986727,2.252381,2.984908
2.250104,2.986969,2.255605,2.980073
2.250537,2.986913,2.247546,2.982491
2.251358,2.987246,2.253187,2.990550
2.252048,2.987427,2.251575,2.986520
2.252532,2.987628,2.253993,2.980879
2.252753,2.987573,2.247546,2.979267
2.253201,2.987830,2.245128,2.987326
2.253463,2.988026,2.248352,2.988132
2.253650,2.988072,2.248352,2.980073
2.253453,2.987961,2.245128,2.981685
2.253594,2.987966,2.251575,2.980073
2.253524,2.988051,2.250769,2.990550
2.253353,2.987905,2.249963,2.983297
2.253116,2.987981,2.246740,2.984908
2.253071,2.987991,2.245128,2.982491
2.252995,2.988041,2.255605,2.985714
2.252668,2.987749,2.242711,2.977656
2.252517,2.987704,2.245934,2.984908
2.252345,2.987684,2.246740,2.983297
2.252280,2.987538,2.250769,2.980073
2.251942,2.987160,2.245934,2.977656
2.251781,2.987160,2.253187,2.981685
2.251565,2.987009,2.247546,2.983297
2.251429,2.986767,2.251575,2.980073
2.251026,2.986480,2.242711,2.981685
2.250759,2.986490,2.247546,2.985714
2.250502,2.986445,2.245128,2.982491
2.250175,2.986253,2.244322,2.980073
2.249666,2.986047,2.241905,2.981685
2.249535,2.986077,2.249963,2.982491
2.249182,2.986138,2.243516,2.990550
2.248790,2.985956,2.241099,2.980073
2.248376,2.985941,2.241905,2.985714
2.248256,2.985861,2.244322,2.981685
2.248054,2.985810,2.247546,2.985714
2.247656,2.985513,2.240293,2.977656
2.247455,2.985483,2.242711,2.984908
2.247299,2.985412,2.235458,2.981685
2.247173,2.985347,2.245128,2.988938
2.246669,2.984969,2.237875,2.977656
2.246442,2.984914,2.242711,2.981685
2.246256,2.984828,2.241905,2.980073
2.246024,2.984758,2.248352,2.977656
2.245455,2.984465,2.233846,2.979267
2.245249,2.984511,2.243516,2.981685
2.245017,2.984455,2.238681,2.981685
2.244775,2.984380,2.245128,2.981685
2.244302,2.984244,2.242711,2.981685
2.244221,2.984385,2.245128,2.982491
2.243919,2.984496,2.243516,2.988132
2.243707,2.984370,2.239487,2.977656
2.243410,2.984496,2.242711,2.981685
2.243370,2.984632,2.245128,2.980879
2.243445,2.984702,2.245128,2.989743
2.243138,2.984491,2.240293,2.977656
2.242881,2.984601,2.239487,2.983297
2.242826,2.984586,2.238681,2.979267
2.242816,2.984531,2.246740,2.988938
2.242524,2.984249,2.238681,2.977656
2.242529,2.984309,2.246740,2.984908
2.242529,2.984264,2.241099,2.980073
2.242368,2.984199,2.243516,2.978462
2.242071,2.983906,2.234652,2.978462
2.242066,2.984027,2.239487,2.981685
2.242040,2.983927,2.242711,2.980879
2.242015,2.983881,2.238681,2.979267
2.241653,2.983760,2.237070,2.982491
2.241663,2.983906,2.241905,2.981685
2.241557,2.984063,2.241099,2.990550
2.241522,2.983987,2.241099,2.981685
2.241305,2.984088,2.240293,2.981685
2.241522,2.984168,2.243516,2.980073
2.241668,2.984294,2.244322,2.984908
2.241562,2.984204,2.237875,2.976850
2.241491,2.984279,2.242711,2.985714
2.241713,2.984350,2.238681,2.980073
2.241854,2.984430,2.244322,2.982491
2.241733,2.984168,2.233846,2.976044
2.241718,2.984173,2.244322,2.978462
2.241723,2.984153,2.237070,2.980879
2.241698,2.984073,2.243516,2.981685
2.241380,2.983750,2.229817,2.977656
2.241300,2.983720,2.238681,2.980879
2.241119,2.983599,2.237875,2.982491
2.240978,2.983403,2.237070,2.978462
2.240338,2.983141,2.229817,2.979267
2.240242,2.983242,2.237070,2.979267
2.239950,2.983247,2.233846,2.988938
2.239638,2.983146,2.230623,2.977656
2.239210,2.983131,2.230623,2.980879
2.239089,2.983201,2.235458,2.980073
2.238907,2.983327,2.233846,2.989743
2.238605,2.983141,2.229817,2.977656
2.238268,2.983307,2.233846,2.980879
2.238207,2.983297,2.229817,2.977656
2.238016,2.983252,2.237875,2.986520
2.237633,2.983040,2.229011,2.977656
2.237402,2.982970,2.229817,2.978462
2.237165,2.982904,2.229817,2.978462
2.236983,2.982778,2.234652,2.977656
2.236535,2.982411,2.224982,2.976044
2.236228,2.982431,2.229817,2.977656
2.235926,2.982239,2.227399,2.977656
2.235558,2.982103,2.231429,2.977656
2.234873,2.981826,2.229011,2.977656
2.234596,2.981801,2.225788,2.979267
2.234234,2.981887,2.227399,2.986520
2.233841,2.981710,2.228205,2.977656
2.233307,2.981580,2.227399,2.980879
2.233090,2.981605,2.229817,2.977656
2.232738,2.981650,2.229817,2.981685
2.232360,2.981449,2.228205,2.976044
2.231962,2.981403,2.229011,2.980073
2.231806,2.981423,2.229011,2.978462
2.231604,2.981413,2.235458,2.980073
2.231232,2.981141,2.225788,2.977656
2.230950,2.981177,2.230623,2.978462
2.230849,2.981172,2.228205,2.977656
2.230733,2.981066,2.230623,2.977656
2.230355,2.980814,2.224176,2.976850
2.230285,2.980814,2.229011,2.978462
2.230169,2.980683,2.224982,2.978462
2.230043,2.980587,2.224176,2.977656
2.229670,2.980305,2.224982,2.978462
2.229585,2.980371,2.224176,2.978462
2.229434,2.980386,2.224982,2.979267
2.229278,2.980315,2.230623,2.976044
2.228965,2.980255,2.221758,2.977656
2.228915,2.980346,2.229011,2.979267
2.228764,2.980522,2.228205,2.984908
2.228643,2.980426,2.225788,2.976044
2.228457,2.980557,2.225788,2.980073
2.228462,2.980567,2.224982,2.977656
2.228401,2.980633,2.227399,2.982491
2.228170,2.980487,2.227399,2.970403
2.228099,2.980512,2.224176,2.977656
2.227993,2.980512,2.221758,2.976850
2.227948,2.980512,2.229817,2.978462
2.227621,2.980194,2.217729,2.973626
2.227510,2.980194,2.224982,2.976850
2.227354,2.980063,2.224982,2.977656
2.227293,2.980003,2.227399,2.977656
2.226840,2.979791,2.217729,2.973626
2.226648,2.979802,2.220952,2.977656
2.226412,2.979882,2.221758,2.978462
2.226205,2.979791,2.227399,2.976044
2.225772,2.979686,2.216923,2.977656
2.225707,2.979736,2.220146,2.974432
2.225530,2.979822,2.221758,2.980879
2.225269,2.979726,2.220952,2.976850
2.224966,2.979776,2.222564,2.980879
2.224987,2.979786,2.222564,2.977656
2.224951,2.979877,2.226593,2.981685
2.224694,2.979736,2.220146,2.973626
2.224639,2.979796,2.221758,2.978462
2.224538,2.979781,2.224982,2.976044
2.224478,2.979786,2.229817,2.979267
2.224246,2.979489,2.220952,2.974432
2.224266,2.979620,2.229817,2.977656
2.224402,2.979570,2.229011,2.977656
2.224604,2.979534,2.229817,2.976044
2.224594,2.979368,2.228205,2.977656
2.224921,2.979555,2.237070,2.981685
2.225183,2.979686,2.234652,2.982491
2.225566,2.979776,2.241905,2.980073
2.225863,2.979806,2.238681,2.983297
2.226442,2.980094,2.241905,2.981685
2.226931,2.980446,2.247546,2.990550
2.227535,2.980542,2.241099,2.980073
2.228034,2.980834,2.242711,2.984908
2.228880,2.981171,2.246740,2.986520
2.229827,2.981615,2.250769,2.990550
2.230617,2.981761,2.243516,2.981685
2.231247,2.982078,2.248352,2.984908
2.232184,2.982350,2.245128,2.984908
2.233201,2.982677,2.249963,2.983297
2.233871,2.982672,2.241905,2.978462
2.234672,2.983050,2.250769,2.987326
2.235543,2.983307,2.242711,2.985714
2.236455,2.983599,2.250769,2.984908
2.236999,2.983629,2.243516,2.981685
2.237966,2.983972,2.251575,2.988132
2.238747,2.984229,2.246740,2.988132
2.239492,2.984440,2.247546,2.979267
2.239915,2.984556,2.237875,2.985714
2.240761,2.984888,2.245128,2.987326
2.241325,2.985231,2.242711,2.990550
2.241904,2.985397,2.241905,2.980879
2.242413,2.985674,2.241905,2.983297
2.243148,2.985971,2.244322,2.986520
2.243843,2.986193,2.247546,2.988938
2.244141,2.986258,2.238681,2.978462
2.244423,2.986530,2.241905,2.982491
2.244735,2.986777,2.240293,2.984908
2.245067,2.986928,2.245934,2.989743
2.245057,2.986702,2.239487,2.977656
2.245203,2.986838,2.243516,2.981685
2.245218,2.986873,2.241099,2.981685
2.245259,2.986732,2.241905,2.981685
2.245027,2.986460,2.234652,2.978462
2.244972,2.986566,2.240293,2.986520
2.244926,2.986551,2.238681,2.983297
2.244725,2.986465,2.245128,2.980879
2.244186,2.986304,2.237875,2.986520
2.243979,2.986384,2.245934,2.982491
2.243763,2.986510,2.238681,2.988938
2.243546,2.986430,2.235458,2.983297
2.243138,2.986425,2.238681,2.984908
2.242977,2.986505,2.235458,2.980073
2.242891,2.986485,2.241905,2.988938
2.242564,2.986263,2.234652,2.978462
2.242151,2.986279,2.235458,2.985714
2.242005,2.986294,2.232234,2.981685
2.241718,2.986218,2.241905,2.984908
2.241280,2.985931,2.233040,2.977656
2.241073,2.985956,2.240293,2.982491
2.240907,2.985820,2.234652,2.983297
2.240655,2.985694,2.233846,2.980073
2.240182,2.985397,2.229817,2.977656
2.239960,2.985412,2.238681,2.979267
2.239613,2.985307,2.233846,2.981685
2.239225,2.985166,2.229817,2.980073
2.238590,2.984964,2.229817,2.982491
2.238364,2.984979,2.232234,2.980073
2.238046,2.984994,2.233846,2.988938
2.237789,2.984813,2.229817,2.977656
2.237361,2.984748,2.229817,2.982491
2.237235,2.984833,2.233040,2.979267
2.237084,2.984899,2.237875,2.988132
2.236827,2.984702,2.230623,2.977656
2.236616,2.984833,2.233040,2.984908
2.236545,2.984884,2.235458,2.981685
2.236525,2.984909,2.239487,2.986520
2.236152,2.984637,2.230623,2.977656
2.236077,2.984627,2.237070,2.982491
2.235906,2.984561,2.233846,2.982491
2.235780,2.984496,2.240293,2.977656
2.235437,2.984168,2.229817,2.980879
2.235301,2.984204,2.237070,2.978462
2.235070,2.984088,2.233846,2.980879
2.234984,2.983972,2.232234,2.980879
2.234541,2.983785,2.229817,2.982491
2.234455,2.983886,2.233846,2.980879
2.234213,2.983967,2.229817,2.984908
2.233997,2.983836,2.229011,2.979267
2.233654,2.983846,2.229817,2.980073
2.233634,2.984037,2.229817,2.982491
2.233493,2.984173,2.231429,2.982491
2.233312,2.984083,2.229817,2.978462
2.233136,2.984239,2.231429,2.982491
2.233176,2.984284,2.230623,2.977656
2.233211,2.984340,2.234652,2.982491
2.233136,2.984103,2.231429,2.976850
2.233196,2.984088,2.233846,2.980073
2.233226,2.984098,2.229817,2.978462
2.233342,2.984037,2.233846,2.984102
2.233151,2.983785,2.224176,2.977656
2.233186,2.983816,2.230623,2.980073
2.233125,2.983715,2.229011,2.982491
2.233110,2.983629,2.229817,2.980073
2.232672,2.983413,2.225788,2.978462
2.232602,2.983473,2.229817,2.981685
2.232415,2.983554,2.229817,2.984908
2.232189,2.983493,2.229817,2.979267
2.231811,2.983388,2.227399,2.978462
2.231801,2.983508,2.231429,2.982491
2.231589,2.983639,2.229817,2.986520
2.231489,2.983468,2.226593,2.980073
2.231212,2.983544,2.224176,2.982491
2.231146,2.983544,2.227399,2.977656
2.231035,2.983519,2.230623,2.983297
2.230773,2.983307,2.224176,2.977656
2.230587,2.983302,2.225788,2.977656
2.230511,2.983206,2.224982,2.980073
2.230401,2.983201,2.229011,2.982491
2.230063,2.982829,2.224176,2.976850
2.229998,2.982849,2.224176,2.977656
2.229816,2.982743,2.224176,2.977656
2.229680,2.982557,2.229817,2.978462
2.229252,2.982239,2.218535,2.977656
2.229111,2.982254,2.221758,2.979267
2.228870,2.982254,2.224982,2.981685
2.228613,2.982154,2.227399,2.977656
2.228154,2.981937,2.219341,2.977656
2.227928,2.981992,2.220952,2.977656
2.227580,2.982123,2.221758,2.983297
2.227258,2.981962,2.220146,2.979267
2.226789,2.982028,2.220146,2.983297
2.226603,2.982023,2.222564,2.980073
2.226492,2.982144,2.230623,2.982491
2.226160,2.981962,2.220146,2.975238
2.225888,2.981917,2.219341,2.977656
2.225722,2.981872,2.218535,2.980879
2.225641,2.981841,2.226593,2.981685
2.225253,2.981494,2.220146,2.975238
2.225107,2.981494,2.225788,2.978462
2.224890,2.981348,2.218535,2.977656
2.224754,2.981187,2.225788,2.980073
2.224306,2.980864,2.216923,2.976850
2.224059,2.980889,2.220952,2.977656
2.223827,2.980758,2.221758,2.979267
2.223500,2.980688,2.217729,2.977656
2.223102,2.980517,2.216923,2.977656
2.222926,2.980567,2.216923,2.978462
2.222578,2.980653,2.219341,2.982491
2.222261,2.980592,2.220952,2.977656
2.221954,2.980628,2.215311,2.980879
2.221924,2.980663,2.218535,2.977656
2.221848,2.980774,2.224176,2.981685
2.221637,2.980607,2.216923,2.977656
2.221350,2.980693,2.220952,2.980073
2.221259,2.980698,2.217729,2.977656
2.221138,2.980774,2.224176,2.981685
2.220856,2.980471,2.215311,2.972015
2.220710,2.980497,2.222564,2.977656
2.220589,2.980517,2.217729,2.977656
2.220468,2.980476,2.220952,2.977656
2.220146,2.980235,2.215311,2.975238
2.220070,2.980305,2.216117,2.976850
2.219945,2.980204,2.219341,2.977656
2.219743,2.980124,2.218535,2.977656
2.219305,2.979887,2.211282,2.977656
2.219219,2.979927,2.219341,2.977656
2.219018,2.980169,2.216923,2.982491
2.218877,2.980079,2.215311,2.976044
2.218560,2.980109,2.212894,2.978462
2.218565,2.980149,2.216923,2.976044
2.218570,2.980204,2.218535,2.981685
2.218404,2.980139,2.217729,2.974432
2.218142,2.980199,2.217729,2.980073
2.218127,2.980214,2.216923,2.976850
2.218232,2.980230,2.224176,2.980073
2.218051,2.980068,2.215311,2.976850
2.218232,2.980139,2.222564,2.977656
2.218328,2.980214,2.222564,2.977656
2.218575,2.980214,2.225788,2.980879
2.218645,2.980068,2.219341,2.977656
2.219033,2.980235,2.229011,2.981685
2.219345,2.980255,2.226593,2.980879
2.219738,2.980350,2.229817,2.978462
2.219889,2.980355,2.229817,2.978462
2.220428,2.980612,2.229817,2.984908
2.221002,2.980904,2.233846,2.988938
2.221471,2.981076,2.237875,2.982491
2.221979,2.981247,2.233846,2.981685
2.222705,2.981549,2.240293,2.981685
2.223541,2.981826,2.243516,2.988938
2.224201,2.981912,2.237875,2.982491
2.224961,2.982209,2.243516,2.988938
2.225933,2.982486,2.241905,2.985714
2.226855,2.982768,2.246740,2.988938
2.227575,2.982869,2.244322,2.978462
2.228497,2.983166,2.243516,2.988132
2.229383,2.983443,2.243516,2.984908
2.230189,2.983730,2.243516,2.988938
2.230803,2.983705,2.238681,2.981685
2.231594,2.984073,2.242711,2.984908
2.232400,2.984249,2.240293,2.986520
2.233221,2.984440,2.241905,2.980879
2.233684,2.984546,2.237070,2.983297
2.234510,2.984843,2.244322,2.983297
2.235236,2.985236,2.241099,2.988132
2.235906,2.985417,2.235458,2.980073
2.236314,2.985624,2.237875,2.984908
2.237079,2.985981,2.238681,2.986520
2.237613,2.986294,2.240293,2.988132
2.238021,2.986349,2.234652,2.981685
2.238374,2.986611,2.240293,2.986520
2.238907,2.986818,2.234652,2.982491
2.239335,2.987034,2.244322,2.988938
2.239482,2.986908,2.234652,2.978462
2.239754,2.987009,2.235458,2.985714
2.240000,2.987024,2.235458,2.981685
2.240126,2.986994,2.234652,2.980879
2.239930,2.986661,2.230623,2.977656
2.240111,2.986646,2.241099,2.985714
2.240016,2.986556,2.234652,2.980879
2.239955,2.986470,2.239487,2.980073
2.239527,2.986253,2.229817,2.980073
2.239416,2.986258,2.230623,2.981685
2.239139,2.986309,2.235458,2.985714
2.238751,2.986188,2.229817,2.977656
2.238192,2.986072,2.229817,2.982491
2.237986,2.986072,2.237070,2.980073
2.237709,2.986143,2.233040,2.988132
2.237356,2.985886,2.231429,2.979267
2.236979,2.985861,2.232234,2.985714
2.236807,2.985785,2.230623,2.978462
2.236742,2.985760,2.238681,2.983297
2.236339,2.985493,2.229817,2.977656
2.236032,2.985362,2.232234,2.978462
2.235800,2.985281,2.229817,2.978462
2.235508,2.985221,2.232234,2.977656
2.235029,2.984808,2.228205,2.977656
2.234798,2.984747,2.231429,2.978462
2.234541,2.984581,2.229817,2.978462
2.234264,2.984334,2.229817,2.979267
2.233785,2.984007,2.225788,2.977656
2.233634,2.983992,2.229011,2.982491
2.233362,2.983967,2.229011,2.980073
2.233075,2.983745,2.229817,2.977656
2.232571,2.983514,2.227399,2.980073
2.232435,2.983524,2.229817,2.980879
2.232113,2.983614,2.228205,2.983297
2.231826,2.983433,2.228205,2.977656
2.231499,2.983468,2.229011,2.984908
2.231473,2.983524,2.228205,2.980073
2.231287,2.983619,2.237070,2.988132
2.231091,2.983403,2.227399,2.977656
2.230955,2.983367,2.229817,2.982491
2.230899,2.983347,2.229817,2.979267
2.230864,2.983322,2.237070,2.984908
2.230637,2.982980,2.225788,2.976850
2.230648,2.982990,2.234652,2.980073
2.230632,2.982869,2.229817,2.982491
2.230668,2.982753,2.229817,2.980073
2.230496,2.982501,2.225788,2.978462
2.230572,2.982642,2.229817,2.982491
2.230632,2.982662,2.230623,2.982491
2.230642,2.982531,2.231429,2.977656
2.230391,2.982385,2.230623,2.983297
2.230476,2.982506,2.232234,2.981685
2.230431,2.982768,2.232234,2.988938
2.230471,2.982708,2.229817,2.978462
2.230396,2.982818,2.229817,2.980073
2.230622,2.982970,2.229817,2.980879
2.230909,2.983085,2.237875,2.984908
2.230935,2.982995,2.229817,2.977656
2.230975,2.983146,2.231429,2.981685
2.231146,2.983161,2.229817,2.979267
2.231212,2.983247,2.231429,2.984908
2.231111,2.982949,2.229011,2.976850
2.231166,2.983015,2.229011,2.981685
2.231222,2.983010,2.229817,2.979267
2.231252,2.982980,2.233846,2.980073
2.231061,2.982642,2.226593,2.976044
2.231025,2.982723,2.228205,2.980879
2.231030,2.982642,2.229011,2.978462
2.230995,2.982552,2.230623,2.976850
2.230753,2.982340,2.224982,2.977656
2.230718,2.982421,2.229817,2.977656
2.230577,2.982587,2.228205,2.983297
2.230446,2.982506,2.219341,2.978462
2.230244,2.982516,2.220952,2.980073
2.230285,2.982521,2.224176,2.980073
2.230254,2.982587,2.229817,2.980073
2.230038,2.982446,2.224982,2.975238
2.229761,2.982501,2.226593,2.977656
2.229580,2.982456,2.229011,2.977656
2.229449,2.982370,2.229011,2.979267
2.229016,2.982023,2.220952,2.972015
2.228885,2.982043,2.225788,2.977656
2.228683,2.981912,2.223370,2.977656
2.228547,2.981756,2.225788,2.981685
2.228205,2.981398,2.216923,2.975238
2.228064,2.981323,2.220952,2.977656
2.227761,2.981076,2.220146,2.979267
2.227479,2.980874,2.219341,2.976044
2.226825,2.980633,2.220146,2.977656
2.226568,2.980693,2.220952,2.977656
2.226261,2.980693,2.220146,2.987326
2.225933,2.980582,2.217729,2.975238
2.225510,2.980431,2.217729,2.977656
2.225349,2.980471,2.222564,2.977656
2.225173,2.980572,2.221758,2.979267
2.224875,2.980386,2.218535,2.976850
2.224543,2.980411,2.219341,2.980879
2.224513,2.980456,2.218535,2.977656
2.224493,2.980391,2.222564,2.979267
2.224145,2.980164,2.216923,2.972821
2.223979,2.980144,2.221758,2.976850
2.223778,2.980043,2.218535,2.977656
2.223717,2.979963,2.224982,2.977656
2.223349,2.979600,2.216923,2.973626
2.223143,2.979555,2.221758,2.977656
2.222936,2.979419,2.220952,2.977656
2.222679,2.979358,2.222564,2.973626
2.222241,2.979111,2.215311,2.975238
2.222075,2.979157,2.217729,2.977656
2.221838,2.979237,2.217729,2.979267
2.221592,2.979142,2.217729,2.976850
2.221209,2.979041,2.214505,2.975238
2.221168,2.979066,2.216923,2.976044
2.220942,2.979116,2.217729,2.979267
2.220690,2.979006,2.216117,2.977656
2.220342,2.979036,2.217729,2.978462
2.220216,2.979006,2.217729,2.976044
2.220075,2.979026,2.218535,2.977656
2.219909,2.978809,2.212894,2.975238
2.219763,2.978829,2.216923,2.976850
2.219753,2.978779,2.215311,2.976850
2.219708,2.978623,2.218535,2.975238
2.219395,2.978311,2.212894,2.972015
2.219274,2.978331,2.218535,2.976850
2.219214,2.978260,2.216923,2.977656
2.219068,2.978195,2.216923,2.972821
2.218705,2.977963,2.214505,2.973626
2.218600,2.977998,2.216117,2.973626
2.218494,2.978079,2.216923,2.980073
2.218232,2.978008,2.211282,2.976044
2.217905,2.977953,2.218535,2.977656
2.217995,2.978054,2.219341,2.977656
2.218010,2.978170,2.220146,2.981685
2.218056,2.978155,2.218535,2.975238
2.218081,2.978286,2.228205,2.980073
2.218443,2.978437,2.225788,2.978462
2.219028,2.978693,2.235458,2.980073
2.219340,2.978683,2.232234,2.977656
2.219874,2.978875,2.232234,2.982491
2.220443,2.979071,2.233040,2.980073
2.221153,2.979263,2.243516,2.985714
2.221551,2.979172,2.232234,2.977656
2.222296,2.979363,2.238681,2.988132
2.222906,2.979514,2.240293,2.983297
2.223581,2.979666,2.238681,2.978462
2.224024,2.979726,2.232234,2.979267
2.224749,2.979968,2.241099,2.983297
2.225500,2.980335,2.240293,2.987326
2.226094,2.980476,2.237070,2.978462
2.226512,2.980688,2.238681,2.982491
2.227293,2.981116,2.240293,2.983297
2.227993,2.981489,2.238681,2.987326
2.228628,2.981620,2.237875,2.981685
2.229227,2.982003,2.235458,2.984908
2.230068,2.982305,2.240293,2.984908
2.230965,2.982662,2.243516,2.985714
2.231554,2.982713,2.233040,2.977656
2.232294,2.983015,2.241099,2.985714
2.233045,2.983272,2.238681,2.983297
2.233886,2.983529,2.242711,2.988132
2.234359,2.983418,2.233846,2.977656
2.235064,2.983649,2.238681,2.985714
2.235669,2.983861,2.233846,2.979267
2.236228,2.983992,2.238681,2.977656
2.236485,2.984027,2.231429,2.978462
2.236978,2.984264,2.240293,2.982491
2.237316,2.984450,2.234652,2.979267
2.237623,2.984420,2.240293,2.977656
2.237432,2.984355,2.230623,2.980879
2.237583,2.984460,2.237070,2.984908
2.237563,2.984657,2.234652,2.985714
2.237522,2.984561,2.230623,2.978462
2.237437,2.984667,2.235458,2.982491
2.237497,2.984773,2.234652,2.983297
2.237573,2.984868,2.241099,2.980073
2.237412,2.984722,2.231429,2.977656
2.237276,2.984773,2.230623,2.979267
2.237266,2.984727,2.233040,2.981685
2.237276,2.984753,2.238681,2.982491
2.237039,2.984365,2.232234,2.976850
2.237064,2.984405,2.234652,2.981685
2.236993,2.984239,2.230623,2.978462
2.236863,2.984032,2.232234,2.978462
2.236470,2.983655,2.229817,2.976850
2.236334,2.983660,2.238681,2.978462
2.236082,2.983458,2.229817,2.977656
2.235775,2.983292,2.237070,2.977656
2.235306,2.983005,2.229817,2.977656
2.235180,2.982975,2.231429,2.977656
2.234873,2.982975,2.230623,2.980879
2.234601,2.982758,2.229011,2.977656
2.234153,2.982637,2.229817,2.978462
2.234108,2.982592,2.229817,2.977656
2.234002,2.982521,2.232234,2.977656
2.233775,2.982254,2.229817,2.977656
2.233468,2.982169,2.229817,2.979267
2.233372,2.982033,2.229817,2.978462
2.233241,2.981867,2.231429,2.980073
2.232904,2.981454,2.228205,2.969597
2.232647,2.981499,2.230623,2.980879
2.232551,2.981302,2.228205,2.976850
2.232395,2.981151,2.231429,2.978462
2.231957,2.980748,2.224176,2.976850
2.231841,2.980673,2.229011,2.975238
2.231539,2.980406,2.228205,2.977656
2.231373,2.980220,2.233040,2.977656
2.230854,2.979958,2.222564,2.977656
2.230788,2.979988,2.229817,2.976850
2.230567,2.980018,2.227399,2.982491
2.230355,2.979872,2.225788,2.974432
2.229972,2.979796,2.225788,2.978462
2.229862,2.979827,2.229011,2.977656
2.229685,2.979872,2.229817,2.981685
2.229534,2.979726,2.228205,2.972015
2.229333,2.979781,2.229817,2.977656
2.229348,2.979766,2.229817,2.976850
2.229368,2.979786,2.237070,2.981685
2.229272,2.979635,2.229817,2.976044
2.229353,2.979650,2.233040,2.978462
2.229378,2.979585,2.228205,2.977656
2.229439,2.979570,2.234652,2.977656
2.229328,2.979298,2.228205,2.976850
2.229393,2.979323,2.229817,2.977656
2.229424,2.979253,2.229011,2.977656
2.229469,2.979237,2.232234,2.976850
2.229298,2.979132,2.227399,2.977656
2.229323,2.979192,2.232234,2.977656
2.229338,2.979343,2.227399,2.981685
2.229247,2.979278,2.227399,2.972015
2.229005,2.979283,2.225788,2.977656
2.229081,2.979378,2.228205,2.977656
2.229101,2.979388,2.229817,2.977656
2.229021,2.979323,2.224176,2.973626
2.228975,2.979399,2.227399,2.977656
2.229081,2.979444,2.227399,2.977656
2.229096,2.979484,2.229817,2.978462
2.228920,2.979363,2.228205,2.972015
2.228930,2.979378,2.229817,2.976044
2.228980,2.979353,2.225788,2.976850
2.228940,2.979278,2.228205,2.976044
2.228688,2.979016,2.217729,2.976044
2.228718,2.979036,2.222564,2.974432
2.228603,2.978920,2.225788,2.976850
2.228507,2.978824,2.219341,2.976044
2.228109,2.978608,2.217729,2.977656
2.228013,2.978653,2.224982,2.977656
2.227787,2.978703,2.220952,2.977656
2.227500,2.978638,2.220952,2.973626
2.227087,2.978517,2.218535,2.976850
2.226860,2.978517,2.224982,2.973626
2.226714,2.978598,2.227399,2.982491
2.226467,2.978477,2.219341,2.973626
2.226200,2.978527,2.224982,2.977656
2.226104,2.978527,2.224176,2.977656
2.226009,2.978618,2.229817,2.977656
2.225661,2.978462,2.218535,2.970403
2.225384,2.978447,2.220952,2.975238
2.225168,2.978431,2.217729,2.977656
2.225117,2.978386,2.224982,2.980073
2.224709,2.978099,2.217729,2.973626
2.224613,2.978129,2.220952,2.978462
2.224513,2.978074,2.221758,2.975238
2.224387,2.978034,2.227399,2.975238
2.223944,2.977847,2.218535,2.974432
2.223767,2.977893,2.220952,2.976850
2.223465,2.978013,2.217729,2.977656
2.223213,2.977953,2.217729,2.973626
2.222780,2.977867,2.216923,2.976850
2.222730,2.977898,2.219341,2.976044
2.222523,2.977998,2.218535,2.979267
2.222191,2.977888,2.216923,2.970403
2.221879,2.977928,2.217729,2.976044
2.221758,2.977918,2.216923,2.973626
2.221561,2.977908,2.220146,2.975238
2.221309,2.977651,2.213700,2.966374
2.221088,2.977731,2.216923,2.977656
2.220972,2.977686,2.216923,2.975238
2.220811,2.977646,2.217729,2.976044
2.220438,2.977313,2.213700,2.967180
2.220317,2.977283,2.217729,2.976850
2.220111,2.977218,2.215311,2.976044
2.219965,2.977147,2.216923,2.975238
2.219501,2.976885,2.215311,2.972015
2.219300,2.976956,2.214505,2.975238
2.219003,2.976915,2.215311,2.976850
2.218710,2.976830,2.216923,2.972821
2.218232,2.976654,2.212894,2.972821
2.218111,2.976674,2.216117,2.972821
2.217879,2.976739,2.215311,2.977656
2.217638,2.976548,2.212894,2.969597
2.217204,2.976573,2.212894,2.976044
2.217204,2.976548,2.212894,2.975238
2.217084,2.976538,2.220952,2.976044
2.216776,2.976276,2.212088,2.967180
2.216489,2.976215,2.211282,2.973626
2.216353,2.976185,2.212894,2.969597
2.216258,2.976089,2.216923,2.977656
2.215905,2.975782,2.208059,2.967180
2.215835,2.975737,2.216117,2.974432
2.215714,2.975676,2.208864,2.973626
2.215563,2.975616,2.216117,2.970403
2.215135,2.975334,2.204029,2.972015
2.215059,2.975379,2.216117,2.972015
2.214958,2.975374,2.209670,2.976850
2.214832,2.975329,2.219341,2.968791
2.214646,2.975309,2.212894,2.973626
2.214716,2.975541,2.219341,2.975238
2.214807,2.975611,2.219341,2.979267
2.215009,2.975616,2.221758,2.972821
2.215170,2.975712,2.222564,2.979267
2.215694,2.975888,2.228205,2.976850
2.216243,2.976120,2.233846,2.982491
2.216711,2.976140,2.227399,2.976044
2.217275,2.976331,2.233040,2.979267
2.217965,2.976497,2.233846,2.980073
2.218680,2.976603,2.241099,2.982491
2.219204,2.976583,2.232234,2.975238
2.219970,2.976870,2.240293,2.982491
2.220655,2.977026,2.233040,2.981685
2.221476,2.977137,2.240293,2.977656
2.221954,2.977122,2.232234,2.978462
2.222765,2.977384,2.240293,2.979267
2.223576,2.977595,2.234652,2.978462
2.224216,2.977767,2.237875,2.980073
2.224730,2.977872,2.235458,2.977656
2.225616,2.978265,2.235458,2.980073
2.226341,2.978714,2.237875,2.988132
2.227097,2.978885,2.233040,2.978462
2.227726,2.979242,2.233040,2.980073
2.228653,2.979489,2.235458,2.979267
2.229524,2.979832,2.237875,2.987326
2.230235,2.979922,2.231429,2.977656
2.230925,2.980275,2.237070,2.980879
2.231902,2.980502,2.233040,2.978462
2.232753,2.980703,2.241905,2.982491
2.233292,2.980693,2.232234,2.976850
2.234077,2.980874,2.241905,2.977656
2.234722,2.980985,2.237070,2.977656
2.235311,2.981035,2.234652,2.975238
2.235594,2.980965,2.229817,2.976850
2.235971,2.981166,2.237875,2.980879
2.236233,2.981242,2.231429,2.980879
2.236334,2.981247,2.240293,2.977656
2.236223,2.981192,2.229817,2.977656
2.236339,2.981307,2.230623,2.978462
2.236324,2.981524,2.232234,2.984908
2.236238,2.981494,2.233040,2.977656
2.235971,2.981615,2.230623,2.979267
2.235971,2.981630,2.233846,2.977656
2.235981,2.981645,2.233040,2.984908
2.235850,2.981529,2.230623,2.973626
2.235644,2.981605,2.234652,2.978462
2.235704,2.981620,2.230623,2.979267
2.235634,2.981690,2.237875,2.978462
2.235336,2.981469,2.229817,2.975238
2.235210,2.981474,2.237875,2.980879
2.235120,2.981393,2.232234,2.977656
2.234954,2.981262,2.232234,2.976850
2.234646,2.980905,2.229817,2.977656
2.234536,2.980884,2.231429,2.979267
2.234405,2.980718,2.233040,2.977656
2.234183,2.980612,2.235458,2.977656
2.233715,2.980371,2.227399,2.975238
2.233569,2.980361,2.231429,2.977656
2.233312,2.980371,2.229817,2.982491
2.232999,2.980280,2.230623,2.973626
2.232587,2.980245,2.227399,2.977656
2.232516,2.980285,2.228205,2.976850
2.232309,2.980290,2.229817,2.980879
2.232037,2.980154,2.226593,2.975238
2.231765,2.980179,2.225788,2.977656
2.231690,2.980169,2.225788,2.978462
2.231634,2.980073,2.232234,2.980073
2.231443,2.979837,2.225788,2.973626
2.231443,2.979852,2.229817,2.975238
2.231418,2.979771,2.225788,2.976044
2.231312,2.979666,2.229817,2.970403
2.230950,2.979298,2.222564,2.976044
2.230844,2.979343,2.227399,2.976850
2.230748,2.979182,2.229011,2.976850
2.230688,2.979132,2.231429,2.975238
2.230265,2.978905,2.222564,2.975238
2.230194,2.978915,2.229817,2.977656
2.230003,2.978986,2.229817,2.980073
2.229837,2.978920,2.229817,2.975238
2.229550,2.978794,2.228205,2.977656
2.229545,2.978860,2.231429,2.976044
2.229530,2.978970,2.229817,2.982491
2.229429,2.978895,2.228205,2.976850
2.229308,2.978991,2.229817,2.980073
2.229328,2.979001,2.229011,2.976044
2.229469,2.979016,2.235458,2.980073
2.229247,2.978839,2.227399,2.976044
2.229273,2.978860,2.229817,2.977656
2.229283,2.978845,2.229817,2.976850
2.229273,2.978860,2.229817,2.977656
2.229132,2.978532,2.226593,2.972015
2.229172,2.978542,2.229817,2.977656
2.229192,2.978487,2.224982,2.977656
2.229167,2.978401,2.229817,2.974432
2.228955,2.978306,2.224982,2.974432
2.228940,2.978366,2.230623,2.977656
2.228930,2.978447,2.229817,2.977656
2.228950,2.978437,2.229817,2.975238
2.228794,2.978421,2.227399,2.977656
2.228799,2.978537,2.227399,2.977656
2.228739,2.978618,2.228205,2.981685
2.228598,2.978568,2.229011,2.973626
2.228497,2.978663,2.224176,2.980073
2.228547,2.978724,2.224176,2.977656
2.228613,2.978719,2.229817,2.977656
2.228386,2.978563,2.221758,2.969597
2.228311,2.978668,2.225788,2.977656
2.228316,2.978673,2.225788,2.972821
2.228381,2.978688,2.231429,2.977656
2.228084,2.978416,2.218535,2.970403
2.228049,2.978386,2.229011,2.977656
2.227923,2.978356,2.224982,2.976850
2.227726,2.978250,2.224982,2.975238
2.227328,2.978008,2.218535,2.969597
2.227182,2.978049,2.226593,2.976850
2.226926,2.978034,2.220952,2.977656
2.226593,2.977958,2.222564,2.974432
2.226074,2.977862,2.219341,2.973626
2.225969,2.977933,2.222564,2.972821
2.225717,2.977933,2.221758,2.979267
2.225379,2.977832,2.218535,2.972015
2.225097,2.977807,2.220952,2.977656
2.224931,2.977817,2.220952,2.976044
2.224881,2.977822,2.228205,2.977656
2.224553,2.977646,2.220952,2.971209
2.224362,2.977641,2.220146,2.976850
2.224281,2.977590,2.217729,2.973626
2.224120,2.977480,2.229817,2.975238
2.223737,2.977182,2.216923,2.973626
2.223541,2.977152,2.220952,2.975238
2.223254,2.977097,2.217729,2.976044
2.223052,2.976946,2.226593,2.969597
2.222649,2.976704,2.212088,2.972821
2.222473,2.976699,2.219341,2.976850
2.222196,2.976623,2.218535,2.973626
2.222025,2.976503,2.218535,2.972015
2.221551,2.976412,2.215311,2.974432
2.221466,2.976437,2.219341,2.976044
2.221179,2.976412,2.216923,2.977656
2.220866,2.976311,2.215311,2.972821
2.220443,2.976276,2.216117,2.972821
2.220368,2.976321,2.216117,2.975238
2.220307,2.976382,2.217729,2.976850
2.220030,2.976195,2.216923,2.970403
2.219844,2.976226,2.216923,2.974432
2.219708,2.976200,2.216923,2.969597
2.219552,2.976140,2.220952,2.972821
2.219265,2.975853,2.211282,2.966374
2.219224,2.975848,2.216923,2.971209
2.219139,2.975813,2.216923,2.972015
2.219048,2.975641,2.220146,2.969597
2.218660,2.975425,2.213700,2.968791
2.218670,2.975465,2.212894,2.973626
2.218524,2.975445,2.214505,2.973626
2.218378,2.975379,2.217729,2.972821
2.217889,2.975304,2.213700,2.970403
2.217839,2.975374,2.216117,2.970403
2.217597,2.975455,2.216117,2.976044
2.217376,2.975329,2.213700,2.970403
2.217124,2.975399,2.212088,2.972821
2.217139,2.975455,2.215311,2.972015
2.217068,2.975490,2.216923,2.975238
2.216953,2.975274,2.212894,2.970403
2.216761,2.975324,2.216923,2.975238
2.216746,2.975359,2.212088,2.975238
2.216721,2.975334,2.218535,2.977656
2.216545,2.975082,2.211282,2.963956
2.216469,2.975122,2.217729,2.974432
2.216429,2.975042,2.208864,2.973626
2.216399,2.974911,2.216117,2.972015
2.216152,2.974709,2.212088,2.969597
2.216192,2.974775,2.216923,2.972015
2.216187,2.974679,2.216923,2.972015
2.216071,2.974573,2.216117,2.968791
2.215552,2.974407,2.206447,2.975238
2.215512,2.974513,2.212894,2.969597
2.215381,2.974533,2.214505,2.977656
2.215290,2.974448,2.209670,2.968791
2.215039,2.974458,2.211282,2.975238
2.215104,2.974573,2.212088,2.972821
2.215079,2.974649,2.215311,2.976044
2.214908,2.974528,2.211282,2.972015
2.214797,2.974639,2.214505,2.973626
2.214983,2.974780,2.212894,2.972821
2.215144,2.974866,2.221758,2.975238
2.215195,2.974735,2.220952,2.970403
2.215497,2.974840,2.225788,2.975238
2.215890,2.974886,2.224982,2.976044
2.216283,2.974951,2.229817,2.977656
2.216570,2.974876,2.224176,2.973626
2.217099,2.975072,2.229817,2.975238
2.217587,2.975122,2.229817,2.976044
2.218086,2.975223,2.231429,2.976850
2.218338,2.975253,2.229817,2.976850
2.218947,2.975551,2.229817,2.977656
2.219607,2.975913,2.234652,2.979267
2.220161,2.975989,2.234652,2.976850
2.220584,2.976150,2.232234,2.977656
2.221319,2.976412,2.240293,2.978462
2.222019,2.976764,2.232234,2.981685
2.222604,2.976860,2.237070,2.976044
2.223178,2.977162,2.237070,2.980073
2.223933,2.977359,2.232234,2.977656
2.224689,2.977570,2.240293,2.983297
2.225152,2.977646,2.234652,2.976044
2.225963,2.977888,2.237070,2.981685
2.226759,2.978119,2.233040,2.979267
2.227489,2.978280,2.234652,2.978462
2.228008,2.978291,2.229817,2.976850
2.228648,2.978527,2.233846,2.976044
2.229313,2.978648,2.231429,2.977656
2.229877,2.978744,2.240293,2.976850
2.230275,2.978774,2.229817,2.977656
2.230925,2.979006,2.237875,2.978462
2.231418,2.979338,2.231429,2.980073
2.231841,2.979399,2.229011,2.976850
2.232028,2.979449,2.227399,2.977656
2.232436,2.979620,2.229817,2.977656
2.232692,2.979781,2.231429,2.979267
2.232818,2.979786,2.229817,2.976850
2.232823,2.979862,2.229817,2.980879
2.233010,2.979948,2.229817,2.977656
2.233085,2.980124,2.235458,2.979267
2.233080,2.980013,2.229011,2.970403
2.233040,2.980033,2.233846,2.977656
2.233080,2.980003,2.229817,2.977656
2.233020,2.979988,2.233040,2.977656
2.232667,2.979676,2.224982,2.974432
2.232571,2.979696,2.229817,2.977656
2.232491,2.979630,2.229817,2.977656
2.232264,2.979595,2.231429,2.976044
2.231831,2.979328,2.224176,2.976044
2.231801,2.979388,2.229817,2.978462
2.231630,2.979580,2.229817,2.980879
2.231423,2.979519,2.225788,2.976850
2.230985,2.979439,2.227399,2.976044
2.230874,2.979459,2.230623,2.977656
2.230602,2.979484,2.229011,2.981685
2.230300,2.979363,2.224176,2.972821
2.229962,2.979303,2.226593,2.977656
2.229836,2.979298,2.220952,2.975238
2.229746,2.979268,2.230623,2.977656
2.229388,2.979046,2.221758,2.972015
2.229187,2.979046,2.224176,2.976044
2.229096,2.978986,2.221758,2.973626
2.228965,2.978925,2.229817,2.975238
2.228567,2.978583,2.220952,2.969597
2.228456,2.978573,2.229011,2.976850
2.228235,2.978492,2.222564,2.977656
2.228038,2.978426,2.218535,2.971209
2.227560,2.978225,2.216923,2.973626
2.227328,2.978265,2.220952,2.975238
2.227127,2.978331,2.225788,2.977656
2.226799,2.978250,2.221758,2.972821
2.226346,2.978069,2.219341,2.974432
2.226175,2.978119,2.220952,2.972015
2.225973,2.978180,2.224176,2.978462
2.225757,2.978104,2.220952,2.976850
2.225510,2.978069,2.224176,2.977656
2.225465,2.978084,2.224176,2.976044
2.225414,2.978099,2.228205,2.979267
2.225213,2.977943,2.220952,2.969597
2.225152,2.977948,2.224176,2.974432
2.225162,2.977918,2.221758,2.977656
2.225077,2.977883,2.225788,2.977656
2.224729,2.977510,2.218535,2.969597
2.224639,2.977505,2.224176,2.973626
2.224447,2.977409,2.224176,2.976044
2.224372,2.977374,2.227399,2.972821
2.224014,2.977208,2.218535,2.972821
2.224065,2.977228,2.220952,2.975238
2.224004,2.977283,2.220952,2.976850
2.223863,2.977243,2.219341,2.974432
2.223571,2.977157,2.217729,2.977656
2.223647,2.977273,2.224176,2.975238
2.223591,2.977359,2.222564,2.979267
2.223370,2.977298,2.223370,2.975238
2.223133,2.977329,2.219341,2.979267
2.223324,2.977419,2.224176,2.975238
2.223415,2.977505,2.229817,2.977656
2.223390,2.977394,2.219341,2.973626
2.223385,2.977460,2.224176,2.978462
2.223561,2.977485,2.224176,2.975238
2.223773,2.977505,2.229817,2.977656
2.223662,2.977283,2.219341,2.966374
2.223858,2.977329,2.224176,2.973626
2.223964,2.977293,2.221758,2.976044
2.224055,2.977258,2.224982,2.976850
2.223818,2.977097,2.216923,2.972015
2.223748,2.977162,2.216923,2.974432
2.223591,2.977162,2.216923,2.976044
2.223445,2.977067,2.216117,2.975238
2.223068,2.977001,2.214505,2.975238
2.222962,2.977107,2.224176,2.975238
2.222730,2.977172,2.218535,2.979267
2.222483,2.977107,2.217729,2.973626
2.222161,2.977122,2.216923,2.976850
2.222176,2.977203,2.221758,2.975238
2.222231,2.977268,2.220952,2.980073
2.222090,2.977122,2.213700,2.970403
2.221954,2.977183,2.218535,2.977656
2.221889,2.977172,2.219341,2.976044
2.221798,2.977193,2.221758,2.977656
2.221476,2.976895,2.214505,2.970403
2.221330,2.976911,2.217729,2.976850
2.221204,2.976865,2.216923,2.972821
2.220977,2.976805,2.217729,2.970403
2.220544,2.976608,2.209670,2.971209
2.220438,2.976613,2.213700,2.974432
2.220247,2.976543,2.216923,2.975238
2.219965,2.976392,2.216923,2.967985
2.219441,2.976210,2.211282,2.968791
2.219245,2.976215,2.213700,2.973626
2.218958,2.976215,2.214505,2.977656
2.218640,2.976044,2.212088,2.966374
2.218197,2.975969,2.211282,2.973626
2.218031,2.975974,2.216923,2.972015
2.217849,2.975989,2.216923,2.975238
2.217502,2.975712,2.211282,2.966374
2.217169,2.975677,2.216923,2.972821
2.217059,2.975611,2.214505,2.972015
2.216983,2.975530,2.216923,2.969597
2.216721,2.975203,2.208059,2.964762
2.216625,2.975238,2.216117,2.976850
2.216499,2.975193,2.209670,2.973626
2.216369,2.975042,2.216117,2.968791
2.215950,2.974770,2.211282,2.967180
2.215835,2.974755,2.212088,2.972821
2.215673,2.974689,2.214505,2.975238
2.215507,2.974589,2.212894,2.969597
2.214983,2.974433,2.208059,2.972821
2.214832,2.974508,2.211282,2.972015
2.214646,2.974518,2.212088,2.977656
2.214459,2.974427,2.208864,2.970403
2.214117,2.974382,2.208059,2.973626
2.214137,2.974528,2.211282,2.977656
2.214117,2.974543,2.216117,2.974432
2.213810,2.974322,2.206447,2.967180
2.213593,2.974327,2.206447,2.975238
2.213553,2.974281,2.215311,2.972015
2.213538,2.974302,2.214505,2.976044
2.213336,2.974070,2.206447,2.965568
2.213215,2.974110,2.209670,2.971209
2.213160,2.974085,2.207253,2.968791
2.213019,2.973974,2.214505,2.963956
2.212657,2.973692,2.204029,2.967180
2.212536,2.973758,2.213700,2.972821
2.212339,2.973672,2.209670,2.972015
2.212133,2.973526,2.213700,2.969597
2.211644,2.973340,2.201612,2.969597
2.211518,2.973476,2.204029,2.968791
2.211276,2.973591,2.209670,2.976044
2.211060,2.973541,2.208059,2.966374
2.210652,2.973521,2.204835,2.968791
2.210662,2.973667,2.204835,2.970403
2.210511,2.973692,2.206447,2.975238
2.210279,2.973450,2.204029,2.967180
2.210017,2.973536,2.204835,2.969597
2.210027,2.973632,2.204029,2.968791
2.209922,2.973667,2.209670,2.977656
2.209614,2.973355,2.204029,2.967180
2.209433,2.973324,2.208059,2.966374
2.209262,2.973204,2.204835,2.967985
2.209222,2.973123,2.208059,2.972015
2.208854,2.972796,2.204029,2.966374
2.208693,2.972781,2.206447,2.972015
2.208537,2.972675,2.204029,2.969597
2.208375,2.972488,2.208059,2.969597
2.207952,2.972267,2.201612,2.966374
2.207937,2.972357,2.202418,2.967985
2.207771,2.972423,2.207253,2.969597
2.207610,2.972307,2.204029,2.964762
2.207242,2.972191,2.202418,2.969597
2.207151,2.972262,2.204029,2.968791
2.206995,2.972312,2.204835,2.973626
2.206804,2.972201,2.204835,2.963956
2.206743,2.972352,2.210476,2.974432
2.206980,2.972413,2.211282,2.972821
2.207202,2.972493,2.212894,2.976044
2.207307,2.972317,2.213700,2.967180
2.207594,2.972478,2.216923,2.972015
2.207957,2.972579,2.214505,2.975238
2.208400,2.972665,2.219341,2.977656
2.208627,2.972529,2.214505,2.968791
2.209105,2.972710,2.221758,2.977656
2.209554,2.972806,2.220952,2.976850
2.210002,2.972906,2.224176,2.975238
2.210229,2.972886,2.216117,2.972015
2.210803,2.973199,2.220952,2.977656
2.211307,2.973440,2.221758,2.977656
2.211795,2.973501,2.224982,2.975238
2.212117,2.973596,2.221758,2.977656
2.212757,2.973934,2.225788,2.976850
2.213346,2.974266,2.221758,2.982491
2.213996,2.974483,2.224982,2.976044
2.214490,2.974720,2.226593,2.980879
2.215230,2.975052,2.224982,2.979267
2.215985,2.975334,2.229817,2.980073
2.216514,2.975405,2.220952,2.974432
2.217033,2.975697,2.228205,2.978462
2.217728,2.975959,2.228205,2.976044
2.218448,2.976221,2.229817,2.977656
2.218902,2.976205,2.221758,2.973626
2.219587,2.976493,2.224176,2.976044
2.220231,2.976669,2.221758,2.977656
2.220846,2.976850,2.229011,2.975238
2.221213,2.976870,2.216923,2.972821
2.221702,2.977112,2.216923,2.977656
2.222050,2.977263,2.217729,2.976044
2.222296,2.977439,2.219341,2.968791
2.222296,2.977485,2.216117,2.972821
2.222498,2.977772,2.217729,2.975238
2.222508,2.977908,2.218535,2.980073
2.222523,2.977938,2.216923,2.974432
2.222362,2.978024,2.214505,2.976044
2.222458,2.978104,2.218535,2.972821
2.222543,2.978165,2.219341,2.979267
2.222473,2.978004,2.216117,2.972015
2.222261,2.978064,2.218535,2.978462
2.222296,2.978109,2.214505,2.976850
2.222211,2.978150,2.220952,2.979267
2.221939,2.977832,2.215311,2.968791
2.221863,2.977868,2.219341,2.977656
2.221763,2.977817,2.216117,2.973626
2.221647,2.977742,2.221758,2.972015
2.221234,2.977490,2.212894,2.969597
2.221022,2.977465,2.214505,2.975238
2.220720,2.977369,2.216923,2.972015
2.220433,2.977278,2.212894,2.975238
2.219939,2.977112,2.211282,2.975238
2.219743,2.977132,2.217729,2.973626
2.219411,2.977173,2.212894,2.979267
2.219033,2.977026,2.212894,2.972821
2.218625,2.976921,2.214505,2.975238
2.218489,2.976860,2.209670,2.972015
2.218217,2.976830,2.216923,2.977656
2.217819,2.976563,2.211282,2.969597
2.217502,2.976538,2.211282,2.976850
2.217376,2.976487,2.215311,2.973626
2.217290,2.976482,2.216117,2.979267
2.217038,2.976210,2.212088,2.970403
2.216978,2.976241,2.219341,2.972821
2.216963,2.976205,2.216117,2.972015
2.216953,2.976160,2.220952,2.976850
2.216746,2.975979,2.211282,2.970403
2.216716,2.975974,2.215311,2.970403
2.216641,2.975954,2.216923,2.972015
2.216585,2.975898,2.217729,2.967180
2.216182,2.975797,2.212088,2.973626
2.216001,2.975923,2.213700,2.971209
2.215860,2.975999,2.216923,2.977656
2.215638,2.975828,2.205641,2.968791
2.215356,2.975772,2.208864,2.976850
2.215306,2.975868,2.213700,2.970403
2.215235,2.975913,2.208864,2.977656
2.215130,2.975732,2.212894,2.972015
2.214938,2.975823,2.209670,2.976044
2.214999,2.975853,2.216923,2.976044
2.215064,2.975868,2.220952,2.977656
2.214848,2.975576,2.216923,2.965568
2.214787,2.975591,2.216923,2.973626
2.214787,2.975561,2.212088,2.975238
2.214787,2.975510,2.215311,2.970403
2.214591,2.975279,2.208864,2.966374
2.214621,2.975329,2.213700,2.976850
2.214500,2.975329,2.212894,2.972015
2.214520,2.975344,2.216923,2.971209
2.214268,2.975243,2.204835,2.973626
2.214359,2.975425,2.213700,2.973626
2.214243,2.975510,2.212088,2.979267
2.214062,2.975465,2.208864,2.966374
2.213845,2.975410,2.209670,2.969597
2.213870,2.975490,2.211282,2.969597
2.213820,2.975505,2.212894,2.976850
2.213684,2.975339,2.208059,2.970403
2.213493,2.975394,2.209670,2.975238
2.213472,2.975394,2.211282,2.973626
2.213447,2.975379,2.216923,2.973626
2.213170,2.975168,2.208864,2.966374
2.213054,2.975153,2.211282,2.973626
2.212974,2.975112,2.212088,2.976044
2.213049,2.975037,2.214505,2.969597
2.212787,2.974745,2.205641,2.967985
2.212782,2.974861,2.208864,2.972821
2.212722,2.974820,2.212088,2.972821
2.212722,2.974725,2.215311,2.970403
2.212354,2.974579,2.208059,2.967180
2.212092,2.974664,2.209670,2.974432
2.211861,2.974679,2.208059,2.976044
2.211564,2.974558,2.204029,2.967180
2.211065,2.974488,2.204029,2.968791
2.210984,2.974689,2.206447,2.972015
2.210818,2.974654,2.204835,2.973626
2.210551,2.974458,2.204029,2.966374
2.210219,2.974513,2.204835,2.972821
2.210108,2.974538,2.206447,2.972015
2.210057,2.974533,2.208864,2.976044
2.209780,2.974261,2.204029,2.964762
2.209614,2.974226,2.208864,2.972015
2.209498,2.974135,2.204029,2.968791
2.209277,2.974045,2.207253,2.969597
2.208985,2.973717,2.204029,2.966374
2.208874,2.973697,2.206447,2.970403
2.208673,2.973591,2.204029,2.968791
2.208451,2.973491,2.204029,2.963956
2.208033,2.973269,2.200000,2.964762
2.207867,2.973324,2.204029,2.969597
2.207660,2.973294,2.204029,2.972821
2.207418,2.973143,2.204029,2.967985
2.207071,2.973047,2.203223,2.972821
2.207066,2.973158,2.206447,2.972015
2.206839,2.973214,2.203223,2.972821
2.206653,2.972997,2.204029,2.963956
2.206361,2.973037,2.201612,2.968791
2.206305,2.973118,2.204029,2.968791
2.206179,2.973042,2.208059,2.969597
2.205978,2.972785,2.204029,2.963956
2.205711,2.972791,2.204029,2.971209
2.205640,2.972730,2.204029,2.968791
2.205625,2.972619,2.209670,2.973626
2.205384,2.972317,2.199194,2.963956
2.205343,2.972292,2.204835,2.973626
2.205278,2.972196,2.200000,2.967985
2.205147,2.972020,2.204029,2.965568
2.204809,2.971808,2.195971,2.967180
2.204769,2.971874,2.203223,2.967985
2.204618,2.971864,2.199194,2.970403
2.204477,2.971692,2.204029,2.967985
2.204104,2.971587,2.201612,2.967180
2.204099,2.971662,2.202418,2.966374
2.203918,2.971753,2.201612,2.976044
2.203792,2.971632,2.204029,2.964762
2.203626,2.971672,2.201612,2.972015
2.203666,2.971768,2.202418,2.968791
2.203661,2.971869,2.204835,2.972821
2.203515,2.971617,2.200000,2.963956
2.203450,2.971672,2.204029,2.967985
2.203440,2.971612,2.200000,2.966374
2.203384,2.971572,2.205641,2.975238
2.203168,2.971254,2.200806,2.964762
2.203213,2.971365,2.204029,2.973626
2.203163,2.971269,2.204029,2.967180
2.203057,2.971088,2.204029,2.964762
2.202785,2.970846,2.192747,2.963150
2.202800,2.970922,2.200000,2.966374
2.202694,2.970902,2.202418,2.969597
2.202508,2.970776,2.203223,2.967180
2.202256,2.970660,2.194359,2.966374
2.202216,2.970766,2.201612,2.967180
2.202186,2.970907,2.201612,2.973626
2.202055,2.970761,2.199194,2.966374
2.201833,2.970872,2.201612,2.975238
2.201919,2.970902,2.200000,2.966374
2.201954,2.970972,2.204835,2.967985
2.201782,2.970731,2.198388,2.963150
2.201732,2.970861,2.200806,2.966374
2.201762,2.970836,2.202418,2.965568
2.201757,2.970856,2.204029,2.972821
2.201551,2.970519,2.199194,2.963150
2.201571,2.970514,2.198388,2.966374
2.201621,2.970509,2.201612,2.964762
2.201687,2.970443,2.203223,2.966374
2.201450,2.970136,2.195971,2.966374
2.201491,2.970307,2.200000,2.969597
2.201460,2.970302,2.204029,2.965568
2.201415,2.970202,2.201612,2.965568
2.201279,2.970076,2.199194,2.964762
2.201475,2.970338,2.204029,2.967180
2.201501,2.970494,2.206447,2.975238
2.201586,2.970539,2.205641,2.970403
2.201672,2.970655,2.204835,2.967180
2.202095,2.970892,2.208059,2.969597
2.202493,2.971058,2.211282,2.972015
2.202714,2.971083,2.208864,2.969597
2.203102,2.971360,2.215311,2.976850
2.203606,2.971602,2.211282,2.973626
2.204089,2.971829,2.216923,2.975238
2.204437,2.971768,2.214505,2.967180
2.205092,2.971985,2.218535,2.972821
2.205630,2.972216,2.217729,2.974432
2.206210,2.972317,2.220146,2.976044
2.206456,2.972231,2.216117,2.972821
2.207071,2.972539,2.219341,2.974432
2.207695,2.972655,2.215311,2.976044
2.208219,2.972846,2.219341,2.972821
2.208476,2.972937,2.216117,2.972821
2.209141,2.973324,2.218535,2.972015
2.209599,2.973541,2.218535,2.981685
2.210078,2.973763,2.214505,2.975238
2.210370,2.973899,2.211282,2.972015
2.211000,2.974266,2.216923,2.972821
2.211503,2.974629,2.215311,2.977656
2.211785,2.974624,2.212088,2.968791
2.212077,2.974931,2.210476,2.977656
2.212646,2.975218,2.212088,2.975238
2.213049,2.975369,2.218535,2.979267
2.213281,2.975253,2.212894,2.968791
2.213654,2.975525,2.216923,2.974432
2.213996,2.975601,2.210476,2.972015
2.214258,2.975566,2.216923,2.972015
2.214389,2.975420,2.209670,2.968791
2.214666,2.975576,2.216923,2.970403
2.214873,2.975596,2.215311,2.973626
2.215024,2.975616,2.214505,2.972015
2.214696,2.975455,2.204029,2.968791
2.214742,2.975556,2.215311,2.972821
2.214585,2.975646,2.206447,2.974432
2.214449,2.975551,2.212894,2.972821
2.214082,2.975520,2.205641,2.972015
2.214001,2.975536,2.208059,2.970403
2.213825,2.975581,2.206447,2.977656
2.213558,2.975400,2.204835,2.972015
2.213231,2.975455,2.204835,2.975238
2.213170,2.975455,2.208864,2.973626
2.213039,2.975440,2.215311,2.976850
2.212657,2.975163,2.204029,2.964762
2.212390,2.975158,2.211282,2.968791
2.212193,2.975052,2.208059,2.967180
2.211997,2.974931,2.214505,2.975238
2.211579,2.974619,2.204029,2.965568
2.211372,2.974573,2.207253,2.972821
2.211256,2.974508,2.208864,2.971209
2.211115,2.974372,2.216117,2.968791
2.210672,2.974176,2.203223,2.966374
2.210632,2.974261,2.208059,2.973626
2.210425,2.974241,2.205641,2.974432
2.210219,2.974095,2.211282,2.969597
2.209871,2.973959,2.204029,2.972015
2.209730,2.974055,2.208059,2.967180
2.209473,2.974065,2.205641,2.976044
2.209186,2.973919,2.204029,2.966374
2.208879,2.973969,2.203223,2.971209
2.208738,2.973999,2.204029,2.966374
2.208668,2.974024,2.208059,2.972821
2.208355,2.973702,2.203223,2.967180
2.208093,2.973657,2.208059,2.967180
2.208038,2.973596,2.205641,2.970403
2.207983,2.973486,2.208864,2.977656
2.207751,2.973103,2.201612,2.967985
2.207625,2.973153,2.206447,2.968791
2.207544,2.973027,2.204029,2.969597
2.207459,2.972932,2.212894,2.967180
2.207116,2.972700,2.195971,2.970403
2.207021,2.972775,2.206447,2.973626
2.206915,2.972796,2.208059,2.968791
2.206864,2.972705,2.204029,2.968791
2.206557,2.972579,2.203223,2.967180
2.206517,2.972690,2.204029,2.970403
2.206341,2.972725,2.204029,2.975238
2.206200,2.972614,2.204029,2.964762
2.205938,2.972705,2.204029,2.973626
2.205993,2.972801,2.204029,2.969597
2.206033,2.972896,2.212088,2.975238
2.205892,2.972680,2.204029,2.964762
2.205731,2.972604,2.200806,2.968791
2.205746,2.972574,2.204029,2.969597
2.205716,2.972514,2.208864,2.973626
2.205550,2.972201,2.202418,2.963956
2.205535,2.972201,2.206447,2.966374
2.205515,2.972106,2.204029,2.967180
2.205540,2.972000,2.211282,2.969597
2.205343,2.971758,2.198388,2.963956
2.205479,2.971834,2.209670,2.969597
2.205439,2.971829,2.201612,2.969597
2.205409,2.971703,2.205641,2.967180
2.205117,2.971516,2.199194,2.965568
2.205102,2.971677,2.208059,2.966374
2.204961,2.971798,2.204029,2.976044
2.204880,2.971723,2.200000,2.967180
2.204648,2.971859,2.199194,2.967180
2.204689,2.971944,2.202418,2.973626
2.204779,2.972005,2.204029,2.973626
2.204704,2.971798,2.201612,2.963956
2.204573,2.971889,2.204029,2.967180
2.204608,2.971914,2.201612,2.969597
2.204623,2.971849,2.204029,2.975238
2.204316,2.971496,2.200000,2.963150
2.204180,2.971461,2.203223,2.967985
2.204109,2.971375,2.203223,2.967180
2.204104,2.971325,2.202418,2.965568
2.203832,2.971058,2.195165,2.962344
2.203752,2.971068,2.204835,2.965568
2.203666,2.970952,2.201612,2.966374
2.203586,2.970831,2.203223,2.965568
2.203137,2.970640,2.195971,2.966374
2.202951,2.970695,2.204029,2.967180
2.202835,2.970882,2.200806,2.977656
2.202613,2.970761,2.200806,2.966374
2.202291,2.970726,2.194359,2.966374
2.202226,2.970816,2.201612,2.964762
2.202135,2.970892,2.200000,2.970403
2.201939,2.970710,2.195971,2.962344
2.201727,2.970756,2.199194,2.967985
2.201692,2.970736,2.199194,2.967180
2.201586,2.970746,2.204029,2.973626
2.201324,2.970469,2.193553,2.963150
2.201304,2.970423,2.203223,2.969597
2.201153,2.970333,2.195971,2.963956
2.201067,2.970292,2.201612,2.970403
2.200740,2.969920,2.190330,2.959927
2.200584,2.969905,2.194359,2.967180
2.200423,2.969688,2.198388,2.965568
2.200282,2.969582,2.196777,2.965568
2.199788,2.969335,2.192747,2.964762
2.199597,2.969426,2.198388,2.965568
2.199536,2.969547,2.196777,2.967180
2.199430,2.969436,2.193553,2.964762
2.199038,2.969401,2.191941,2.965568
2.199148,2.969562,2.198388,2.968791
2.199113,2.969728,2.198388,2.972015
2.198947,2.969592,2.199194,2.962344
2.198725,2.969703,2.198388,2.967180
2.198846,2.969733,2.195165,2.967180
2.198947,2.969809,2.204835,2.972821
2.198771,2.969522,2.195971,2.964762
2.198735,2.969507,2.203223,2.967985
2.198826,2.969456,2.201612,2.965568
2.198886,2.969446,2.203223,2.969597
2.198614,2.969109,2.193553,2.959927
2.198725,2.969149,2.201612,2.965568
2.198710,2.969043,2.196777,2.964762
2.198695,2.968887,2.200000,2.963150
2.198327,2.968746,2.191941,2.966374
2.198312,2.968902,2.203223,2.970403
2.198272,2.969028,2.194359,2.968791
2.198236,2.968927,2.200806,2.963956
2.197924,2.968791,2.190330,2.964762
2.197909,2.968872,2.191136,2.965568
2.197708,2.969053,2.193553,2.969597
2.197561,2.968953,2.191136,2.960733
2.197360,2.968927,2.192747,2.967180
2.197410,2.968968,2.192747,2.962344
2.197531,2.969083,2.199194,2.966374
2.197380,2.968877,2.191136,2.960733
2.197305,2.968958,2.192747,2.963956
2.197451,2.968932,2.198388,2.964762
2.197657,2.968968,2.200000,2.968791
2.197375,2.968590,2.191136,2.965568
2.197370,2.968610,2.199194,2.969597
2.197395,2.968489,2.196777,2.962344
2.197275,2.968348,2.200000,2.963150
2.196897,2.968041,2.187106,2.960733
2.196892,2.968157,2.193553,2.966374
2.196826,2.968066,2.195165,2.963956
2.196635,2.967890,2.191136,2.963150
2.196202,2.967749,2.189524,2.963956
2.196096,2.967865,2.191941,2.966374
2.195814,2.967976,2.192747,2.970403
2.195577,2.967855,2.189524,2.963150
2.195270,2.967870,2.188718,2.965568
2.195230,2.967915,2.191941,2.963956
2.195194,2.967970,2.200000,2.972821
2.195018,2.967819,2.191136,2.960733
2.194902,2.967945,2.193553,2.966374
2.194998,2.967880,2.191136,2.966374
2.195149,2.967880,2.201612,2.966374
2.194953,2.967527,2.189524,2.963150
2.195003,2.967613,2.200000,2.965568
2.195038,2.967618,2.191941,2.964762
2.195265,2.967583,2.199194,2.966374
2.195154,2.967291,2.190330,2.960733
2.195406,2.967391,2.202418,2.965568
2.195628,2.967472,2.203223,2.968791
2.195910,2.967517,2.204835,2.966374
2.195880,2.967447,2.198388,2.965568
2.196267,2.967688,2.204029,2.964762
2.196514,2.967920,2.204835,2.976850
2.196731,2.967950,2.202418,2.968791
2.196832,2.968122,2.204029,2.970403
2.197240,2.968384,2.204029,2.967180
2.197658,2.968686,2.210476,2.972821
2.198010,2.968706,2.204835,2.968791
2.198373,2.968973,2.207253,2.967985
2.198922,2.969240,2.206447,2.970403
2.199461,2.969461,2.212088,2.975238
2.199758,2.969356,2.204029,2.966374
2.200196,2.969723,2.208864,2.972015
2.200730,2.969889,2.204029,2.972015
2.201319,2.969980,2.206447,2.970403
2.201667,2.969925,2.203223,2.963150
2.202080,2.970161,2.210476,2.969597
2.202498,2.970318,2.206447,2.970403
2.202956,2.970413,2.206447,2.964762
2.203067,2.970443,2.203223,2.967180
2.203480,2.970736,2.208864,2.968791
2.203827,2.971008,2.206447,2.977656
2.204145,2.971128,2.204029,2.968791
2.204210,2.971300,2.205641,2.968791
2.204719,2.971506,2.204835,2.972821
2.205142,2.971743,2.205641,2.977656
2.205419,2.971728,2.203223,2.969597
2.205535,2.971975,2.204029,2.973626
2.205923,2.972166,2.204029,2.967180
2.206180,2.972292,2.208864,2.973626
2.206195,2.972111,2.203223,2.962344
2.206235,2.972267,2.207253,2.970403
2.206346,2.972302,2.204029,2.965568
2.206386,2.972297,2.208059,2.968791
2.206255,2.971990,2.200000,2.965568
2.206290,2.972035,2.203223,2.965568
2.206215,2.971879,2.200000,2.964762
2.206180,2.971713,2.204029,2.967180
2.205761,2.971466,2.196777,2.964762
2.205686,2.971526,2.204029,2.969597
2.205525,2.971617,2.200000,2.973626
2.205087,2.971446,2.200000,2.968791
2.204684,2.971305,2.203223,2.965568
2.204618,2.971340,2.201612,2.967180
2.204482,2.971375,2.203223,2.970403
2.204291,2.971154,2.198388,2.963956
2.204034,2.971224,2.204029,2.970403
2.204029,2.971214,2.204029,2.963956
2.204019,2.971224,2.204835,2.972015
2.203848,2.970982,2.199194,2.962344
2.203757,2.971048,2.202418,2.972821
2.203732,2.970982,2.203223,2.966374
2.203686,2.970907,2.204029,2.970403
2.203435,2.970615,2.198388,2.964762
2.203339,2.970600,2.204029,2.972015
2.203268,2.970423,2.203223,2.965568
2.203122,2.970403,2.204029,2.967180
2.202734,2.970192,2.197582,2.967180
2.202704,2.970242,2.200806,2.967180
2.202553,2.970252,2.201612,2.965568
2.202457,2.970131,2.199194,2.964762
2.202196,2.970071,2.201612,2.966374
2.202211,2.970192,2.201612,2.966374
2.202140,2.970207,2.202418,2.972015
2.202060,2.970071,2.200806,2.965568
2.201873,2.970131,2.196777,2.969597
2.201828,2.970156,2.198388,2.967180
2.201788,2.970262,2.202418,2.972015
2.201616,2.970061,2.199194,2.963956
2.201571,2.970146,2.200000,2.963150
2.201596,2.970156,2.198388,2.966374
2.201566,2.970247,2.203223,2.966374
2.201324,2.969869,2.193553,2.962344
2.201526,2.969930,2.201612,2.968791
2.201480,2.969864,2.200000,2.966374
2.201480,2.969763,2.204029,2.964762
2.201228,2.969441,2.195971,2.959927
2.201133,2.969537,2.199194,2.966374
2.200982,2.969557,2.201612,2.965568
2.200810,2.969461,2.196777,2.963956
2.200574,2.969295,2.195165,2.964762
2.200599,2.969366,2.200806,2.967180
2.200513,2.969476,2.199194,2.972015
2.200408,2.969356,2.200806,2.963150
2.200231,2.969356,2.200000,2.972821
2.200226,2.969376,2.202418,2.966374
2.200241,2.969461,2.203223,2.967180
2.200030,2.969275,2.195165,2.963956
2.200005,2.969220,2.202418,2.968791
2.199954,2.969194,2.196777,2.963956
2.199954,2.969139,2.203223,2.972821
2.199768,2.968832,2.195971,2.960733
2.199728,2.968862,2.200000,2.972015
2.199692,2.968817,2.199194,2.965568
2.199642,2.968706,2.201612,2.969597
2.199425,2.968509,2.193553,2.963150
2.199420,2.968580,2.203223,2.965568
2.199440,2.968620,2.201612,2.967180
2.199375,2.968595,2.202418,2.963150
2.199083,2.968449,2.193553,2.966374
2.199219,2.968595,2.199194,2.965568
2.199058,2.968640,2.191941,2.968791
2.198851,2.968499,2.190330,2.963956
2.198609,2.968474,2.195165,2.965568
2.198614,2.968530,2.195165,2.967180
2.198625,2.968519,2.200000,2.964762
2.198388,2.968258,2.192747,2.959927
2.198196,2.968303,2.195165,2.964762
2.198116,2.968288,2.198388,2.963150
2.198186,2.968197,2.198388,2.965568
2.197959,2.967940,2.190330,2.960733
2.197919,2.967965,2.200000,2.959927
2.197808,2.967935,2.191941,2.963956
2.197763,2.967829,2.200000,2.965568
2.197360,2.967431,2.189524,2.964762
2.197184,2.967487,2.191941,2.968791
2.196992,2.967396,2.192747,2.964762
2.196771,2.967265,2.190330,2.959927
2.196303,2.967034,2.187106,2.963956
2.196262,2.967094,2.187912,2.966374
2.195935,2.967235,2.192747,2.967180
2.195718,2.967079,2.193553,2.963150
