1.384140,3.010791,1.379634,3.008278
1.384190,3.010847,1.381245,3.005861
1.384452,3.010882,1.386886,3.009084
1.384513,3.010968,1.382857,3.008278
1.384558,3.011028,1.386081,3.011502
1.384528,3.011018,1.381245,3.006667
1.384614,3.011018,1.380440,3.007473
1.384548,3.011078,1.383663,3.010696
1.384473,3.011109,1.384469,3.009084
1.384508,3.011038,1.381245,3.005055
1.384583,3.010998,1.382857,3.012308
1.384679,3.011023,1.382857,3.005861
1.384629,3.010963,1.381245,3.005861
1.384427,3.010872,1.382857,3.005861
1.384332,3.010917,1.379634,3.008278
1.384186,3.010852,1.382857,3.004249
1.384100,3.010817,1.389304,3.007473
1.383984,3.010781,1.378828,3.007473
1.383923,3.010791,1.382857,3.007473
1.383772,3.010867,1.383663,3.006667
1.383561,3.010817,1.378828,3.007473
1.383395,3.010852,1.379634,3.007473
1.383319,3.010917,1.382857,3.007473
1.383339,3.010988,1.379634,3.011502
1.383284,3.010912,1.378828,3.005861
1.383158,3.010842,1.379634,3.005055
1.383117,3.010852,1.378828,3.005055
1.383027,3.010867,1.380440,3.005861
1.382956,3.010807,1.378828,3.003443
1.382926,3.010847,1.383663,3.005861
1.382906,3.010837,1.384469,3.006667
1.382745,3.010842,1.382051,3.008278
1.382629,3.010706,1.379634,3.004249
1.382589,3.010706,1.378828,3.005055
1.382337,3.010630,1.378828,3.004249
1.382236,3.010530,1.378828,3.003443
1.382060,3.010383,1.379634,3.005861
1.381979,3.010358,1.386081,3.003443
1.381833,3.010454,1.379634,3.008278
1.381808,3.010419,1.378828,3.005055
1.381606,3.010363,1.381245,3.005861
1.381526,3.010323,1.378828,3.005861
1.381501,3.010368,1.379634,3.006667
1.381355,3.010273,1.378828,3.003443
1.381163,3.010247,1.378828,3.005055
1.381123,3.010232,1.378828,3.006667
1.381133,3.010237,1.383663,3.008278
1.381113,3.010127,1.380440,3.004249
1.381027,3.010091,1.381245,3.005861
1.380997,3.010021,1.383663,3.005861
1.380917,3.010006,1.383663,3.007473
1.380781,3.009769,1.378828,3.003443
1.380745,3.009794,1.379634,3.004249
1.380766,3.009648,1.378828,3.005055
1.380725,3.009547,1.379634,3.005055
1.380584,3.009381,1.378828,3.005055
1.380579,3.009416,1.378828,3.006667
1.380524,3.009437,1.378828,3.005861
1.380468,3.009326,1.378828,3.003443
1.380423,3.009180,1.378828,3.003443
1.380358,3.009240,1.378022,3.004249
1.380272,3.009200,1.378828,3.005055
1.380191,3.009124,1.380440,3.003443
1.380161,3.009054,1.379634,3.005055
1.380105,3.009054,1.378828,3.007473
1.380075,3.009013,1.380440,3.005055
1.380141,3.008888,1.382857,3.003443
1.380095,3.008913,1.378828,3.005861
1.380085,3.008882,1.378828,3.004249
1.380090,3.008877,1.378828,3.003443
1.380065,3.008681,1.378828,3.005055
1.380050,3.008600,1.378828,3.005055
1.380070,3.008575,1.378828,3.005055
1.380060,3.008545,1.380440,3.003443
1.379939,3.008419,1.378828,3.003443
1.379919,3.008389,1.378828,3.005861
1.379884,3.008349,1.378022,3.003443
1.379964,3.008238,1.380440,3.003443
1.379813,3.008092,1.378828,3.004249
1.379773,3.008062,1.378828,3.003443
1.379718,3.008051,1.379634,3.005861
1.379672,3.008021,1.380440,3.003443
1.379692,3.008016,1.378828,3.005861
1.379838,3.008067,1.379634,3.004249
1.379969,3.008016,1.379634,3.007473
1.380055,3.008026,1.380440,3.005055
1.380035,3.008016,1.379634,3.003443
1.380055,3.008056,1.379634,3.005055
1.380141,3.008087,1.378828,3.008278
1.380226,3.008046,1.381245,3.004249
1.380257,3.008087,1.378022,3.006667
1.380247,3.008072,1.382857,3.003443
1.380257,3.007981,1.381245,3.003443
1.380211,3.007941,1.378828,3.005055
1.380242,3.007971,1.378022,3.005861
1.380272,3.007986,1.380440,3.006667
1.380343,3.007921,1.379634,3.005055
1.380388,3.007910,1.382857,3.003443
1.380479,3.007961,1.379634,3.003443
1.380615,3.008057,1.382051,3.005861
1.380615,3.008011,1.379634,3.004249
1.380574,3.007996,1.378022,3.005861
1.380584,3.008067,1.378828,3.005055
1.380589,3.008132,1.379634,3.004249
1.380584,3.008062,1.378022,3.004249
1.380554,3.008087,1.378828,3.003443
1.380604,3.008122,1.380440,3.005861
1.380645,3.008157,1.380440,3.005055
1.380655,3.008112,1.381245,3.003443
1.380569,3.008147,1.378828,3.005861
1.380599,3.008147,1.381245,3.005055
1.380640,3.008208,1.378828,3.006667
1.380640,3.008102,1.378828,3.003443
1.380645,3.008097,1.381245,3.003443
1.380584,3.007996,1.378828,3.003443
1.380479,3.007936,1.383663,3.005055
1.380373,3.007885,1.380440,3.003443
1.380398,3.007926,1.380440,3.005861
1.380494,3.007981,1.381245,3.004249
1.380569,3.007951,1.383663,3.003443
1.380519,3.007916,1.378828,3.003443
1.380388,3.007875,1.378828,3.005861
1.380353,3.007855,1.378828,3.005861
1.380322,3.007825,1.378828,3.003443
1.380302,3.007805,1.377216,3.004249
1.380287,3.007754,1.378828,3.004249
1.380272,3.007769,1.379634,3.003443
1.380191,3.007644,1.378828,3.003443
1.380146,3.007633,1.378828,3.003443
1.380065,3.007598,1.378828,3.004249
1.379995,3.007533,1.382857,3.003443
1.379849,3.007321,1.377216,3.003443
1.379823,3.007361,1.378022,3.003443
1.379803,3.007266,1.378828,3.004249
1.379818,3.007220,1.379634,3.003443
1.379783,3.007105,1.378828,3.003443
1.379808,3.007085,1.378828,3.003443
1.379818,3.007059,1.380440,3.003443
1.379813,3.007024,1.378828,3.003443
1.379818,3.006959,1.378828,3.003443
1.379904,3.007034,1.378828,3.004249
1.380065,3.007095,1.379634,3.005055
1.380191,3.007145,1.381245,3.003443
1.380347,3.007195,1.382857,3.004249
1.380604,3.007341,1.386081,3.005861
1.380926,3.007467,1.390916,3.005861
1.381223,3.007513,1.387692,3.005861
1.381525,3.007654,1.390110,3.007473
1.381832,3.007785,1.390110,3.007473
1.382135,3.007895,1.392527,3.008278
1.382583,3.007941,1.394945,3.008278
1.382981,3.008102,1.394139,3.014725
1.383459,3.008203,1.395751,3.008278
1.384124,3.008419,1.398974,3.011502
1.384552,3.008590,1.391722,3.007473
1.385050,3.008812,1.395751,3.009084
1.385564,3.009024,1.395751,3.008278
1.386033,3.009210,1.395751,3.009084
1.386521,3.009351,1.393333,3.005861
1.386959,3.009638,1.394139,3.009084
1.387468,3.009900,1.394945,3.012308
1.387977,3.010031,1.396557,3.009890
1.388410,3.010313,1.393333,3.010696
1.388919,3.010519,1.394945,3.007473
1.389478,3.010691,1.394139,3.012308
1.389952,3.010852,1.393333,3.007473
1.390420,3.011023,1.391722,3.008278
1.390913,3.011209,1.396557,3.005861
1.391422,3.011421,1.397363,3.007473
1.391931,3.011542,1.398974,3.005861
1.392480,3.011708,1.393333,3.007473
1.392999,3.011904,1.395751,3.009890
1.393482,3.011995,1.398974,3.010696
1.393830,3.012056,1.395751,3.005861
1.394354,3.012171,1.397363,3.009084
1.394701,3.012247,1.395751,3.008278
1.394938,3.012312,1.397363,3.008278
1.395124,3.012312,1.394139,3.007473
1.395366,3.012448,1.396557,3.006667
1.395558,3.012569,1.394139,3.013113
1.395704,3.012600,1.393333,3.007473
1.395830,3.012605,1.395751,3.008278
1.395865,3.012670,1.393333,3.009084
1.395946,3.012746,1.395751,3.010696
1.396092,3.012771,1.400586,3.009084
1.396147,3.012751,1.399780,3.009084
1.396404,3.012771,1.398974,3.009084
1.396676,3.012796,1.400586,3.011502
1.396898,3.012720,1.400586,3.012308
1.397205,3.012786,1.402198,3.011502
1.397422,3.012801,1.400586,3.010696
1.397689,3.012801,1.398974,3.011502
1.397840,3.012751,1.396557,3.006667
1.398051,3.012872,1.403004,3.011502
1.398232,3.012856,1.400586,3.010696
1.398499,3.012872,1.403810,3.008278
1.398670,3.012877,1.400586,3.009084
1.398952,3.012977,1.404615,3.009084
1.399189,3.013043,1.400586,3.011502
1.399436,3.013103,1.397363,3.011502
1.399587,3.013138,1.402198,3.009084
1.399809,3.013259,1.404615,3.007473
1.400025,3.013365,1.403004,3.010696
1.400216,3.013405,1.404615,3.011502
1.400423,3.013521,1.402198,3.012308
1.400614,3.013587,1.402198,3.011502
1.400695,3.013642,1.403004,3.013113
1.400841,3.013677,1.400586,3.009890
1.401073,3.013743,1.401392,3.012308
1.401274,3.013849,1.403810,3.011502
1.401551,3.013914,1.402198,3.010696
1.401768,3.013889,1.398974,3.010696
1.402014,3.013954,1.403810,3.010696
1.402216,3.014015,1.400586,3.012308
1.402463,3.014090,1.404615,3.015531
1.402639,3.014050,1.403004,3.008278
1.402730,3.014136,1.406227,3.010696
1.402921,3.014242,1.404615,3.010696
1.403168,3.014337,1.413480,3.013919
1.403203,3.014383,1.404615,3.013919
1.403314,3.014519,1.408645,3.014725
1.403410,3.014649,1.406227,3.016337
1.403510,3.014700,1.404615,3.012308
1.403677,3.014796,1.404615,3.013919
1.403833,3.014886,1.404615,3.013919
1.404059,3.014942,1.407839,3.017143
1.404210,3.014962,1.404615,3.009890
1.404407,3.015118,1.407033,3.013919
1.404593,3.015214,1.404615,3.015531
1.404755,3.015375,1.411868,3.014725
1.404916,3.015425,1.407033,3.012308
1.405152,3.015496,1.410256,3.013919
1.405450,3.015571,1.413480,3.015531
1.405686,3.015601,1.411868,3.012308
1.405853,3.015662,1.409451,3.012308
1.406125,3.015768,1.409451,3.014725
1.406361,3.015863,1.411062,3.014725
1.406653,3.016004,1.411868,3.015531
1.406986,3.016125,1.412674,3.013919
1.407389,3.016296,1.418315,3.014725
1.407746,3.016442,1.411868,3.016337
1.408114,3.016553,1.414286,3.013919
1.408431,3.016684,1.412674,3.015531
1.408794,3.016805,1.415092,3.014725
1.409247,3.016981,1.415897,3.019560
1.409615,3.017047,1.411868,3.013113
1.409927,3.017122,1.414286,3.017143
1.410391,3.017253,1.415897,3.015531
1.410814,3.017344,1.417509,3.015531
1.411060,3.017354,1.414286,3.013113
1.411367,3.017485,1.418315,3.017143
1.411760,3.017636,1.415897,3.017143
1.412113,3.017772,1.413480,3.016337
1.412470,3.017823,1.418315,3.016337
1.412893,3.017954,1.416703,3.017949
1.413261,3.018034,1.417509,3.017143
1.413760,3.018135,1.419927,3.015531
1.414067,3.018210,1.416703,3.016337
1.414460,3.018377,1.422344,3.017143
1.414878,3.018568,1.419121,3.018754
1.415311,3.018674,1.419121,3.017949
1.415689,3.018754,1.418315,3.013919
1.416187,3.018905,1.418315,3.020366
1.416585,3.019122,1.423150,3.019560
1.416953,3.019273,1.424762,3.016337
1.417351,3.019459,1.421538,3.016337
1.417829,3.019621,1.424762,3.020366
1.418283,3.019837,1.425568,3.024396
1.418766,3.019918,1.424762,3.017143
1.419305,3.020069,1.430403,3.017949
1.419764,3.020265,1.429597,3.020366
1.420227,3.020401,1.426374,3.023590
1.420625,3.020492,1.426374,3.018754
1.421124,3.020754,1.426374,3.017143
1.421552,3.020925,1.425568,3.017949
1.422005,3.021157,1.429597,3.021978
1.422398,3.021273,1.428791,3.021172
1.422871,3.021570,1.430403,3.020366
1.423360,3.021852,1.430403,3.021978
1.423813,3.022094,1.430403,3.020366
1.424206,3.022300,1.430403,3.021172
1.424705,3.022542,1.431209,3.020366
1.425103,3.022753,1.431209,3.024396
1.425561,3.022884,1.430403,3.021978
1.426050,3.023096,1.431209,3.024396
1.426533,3.023328,1.432015,3.025202
1.427057,3.023574,1.436044,3.021978
1.427556,3.023736,1.436044,3.020366
1.428009,3.023972,1.432821,3.021172
1.428558,3.024209,1.431209,3.024396
1.429082,3.024400,1.435238,3.021978
1.429591,3.024481,1.438462,3.023590
1.430175,3.024708,1.442491,3.021978
1.430794,3.024899,1.441685,3.025202
1.431348,3.025085,1.438462,3.023590
1.431938,3.025226,1.440879,3.023590
1.432492,3.025438,1.441685,3.024396
1.433081,3.025649,1.442491,3.025202
1.433564,3.025770,1.438462,3.023590
1.433912,3.025831,1.437656,3.024396
1.434310,3.026027,1.439267,3.021978
1.434652,3.026214,1.438462,3.026007
1.435020,3.026294,1.439267,3.025202
1.435362,3.026435,1.439267,3.022784
1.435775,3.026611,1.441685,3.023590
1.436183,3.026662,1.442491,3.028425
1.436561,3.026687,1.435238,3.021978
1.436918,3.026788,1.441685,3.025202
1.437266,3.026893,1.442491,3.025202
1.437598,3.026964,1.443297,3.027619
1.437921,3.026994,1.438462,3.023590
1.438263,3.027070,1.441685,3.027619
1.438626,3.027171,1.440879,3.024396
1.439004,3.027201,1.440879,3.026813
1.439346,3.027211,1.439267,3.025202
1.439684,3.027352,1.439267,3.025202
1.439971,3.027422,1.443297,3.024396
1.440273,3.027468,1.444103,3.024396
1.440519,3.027478,1.440879,3.025202
1.440827,3.027604,1.438462,3.025202
1.441058,3.027674,1.442491,3.028425
1.441280,3.027735,1.445714,3.028425
1.441617,3.027825,1.446520,3.027619
1.441889,3.027926,1.445714,3.027619
1.442217,3.028002,1.451355,3.029231
1.442504,3.028022,1.444103,3.025202
1.442701,3.028102,1.448938,3.026813
1.443003,3.028168,1.447326,3.029231
1.443315,3.028203,1.448938,3.029231
1.443481,3.028198,1.448938,3.026007
1.443748,3.028294,1.447326,3.029231
1.444131,3.028374,1.450549,3.030037
1.444534,3.028445,1.448938,3.029231
1.444927,3.028450,1.451355,3.028425
1.445380,3.028541,1.453773,3.028425
1.445879,3.028666,1.455385,3.029231
1.446488,3.028787,1.456996,3.029231
1.446937,3.028923,1.455385,3.029231
1.447591,3.029165,1.460220,3.033260
1.448412,3.029437,1.465861,3.034872
1.449309,3.029694,1.468278,3.030843
1.450321,3.029996,1.473919,3.034066
1.451545,3.030394,1.477949,3.037289
1.452885,3.030822,1.481978,3.039707
1.454386,3.031195,1.486813,3.037289
1.455998,3.031724,1.494066,3.042125
1.457811,3.032222,1.499707,3.040513
1.459770,3.032706,1.506154,3.042125
1.461785,3.033159,1.506154,3.042125
1.463840,3.033653,1.507766,3.045348
1.465930,3.034217,1.509377,3.045348
1.468101,3.034746,1.509377,3.043736
1.470256,3.035254,1.509377,3.043736
1.472513,3.035758,1.519048,3.041319
1.474724,3.036327,1.518242,3.043736
1.476874,3.036861,1.522271,3.044542
1.478970,3.037380,1.518242,3.041319
1.481176,3.037969,1.516630,3.044542
1.483482,3.038629,1.522271,3.046154
1.485633,3.039208,1.515824,3.044542
1.487879,3.039792,1.521465,3.046154
1.490277,3.040397,1.522271,3.045348
1.492624,3.041107,1.524689,3.049377
1.494996,3.041676,1.526300,3.043736
1.497343,3.042306,1.523883,3.043736
1.499755,3.042955,1.526300,3.046154
1.502153,3.043630,1.531941,3.046154
1.504475,3.044129,1.525494,3.044542
1.506751,3.044693,1.530330,3.046154
1.509058,3.045257,1.531136,3.044542
1.511299,3.045826,1.533553,3.046960
1.513369,3.046194,1.532747,3.046154
1.515374,3.046738,1.533553,3.050989
1.517257,3.047141,1.533553,3.050989
1.518990,3.047453,1.535971,3.046960
1.520496,3.047765,1.533553,3.046960
1.521967,3.048133,1.534359,3.046960
1.523286,3.048450,1.538388,3.046960
1.524480,3.048697,1.535165,3.049377
1.525493,3.048919,1.539194,3.046154
1.526656,3.049231,1.539194,3.052601
1.527779,3.049533,1.543224,3.052601
1.528806,3.049770,1.542418,3.051795
1.529784,3.050042,1.544029,3.050989
1.530796,3.050289,1.545641,3.051795
1.531748,3.050566,1.544029,3.050183
1.532589,3.050712,1.543224,3.048571
1.533475,3.050918,1.544029,3.050183
1.534216,3.051135,1.541612,3.047765
1.534996,3.051281,1.544029,3.053406
1.535596,3.051356,1.537582,3.049377
1.536321,3.051513,1.539194,3.050989
1.536961,3.051659,1.542418,3.049377
1.537479,3.051764,1.540806,3.052601
1.537953,3.051785,1.538388,3.047765
1.538452,3.051936,1.544029,3.050989
1.538850,3.052041,1.540806,3.047765
1.539278,3.052117,1.544029,3.050989
1.539625,3.052162,1.540806,3.050183
1.540013,3.052344,1.540806,3.050989
1.540340,3.052515,1.541612,3.052601
1.540758,3.052600,1.544835,3.050183
1.541146,3.052701,1.546447,3.052601
1.541569,3.052872,1.548059,3.049377
1.541992,3.052938,1.547253,3.054213
1.542426,3.052978,1.547253,3.050989
1.542819,3.053109,1.548864,3.052601
1.543347,3.053200,1.552088,3.052601
1.543776,3.053280,1.551282,3.053406
1.544063,3.053290,1.546447,3.050989
1.544380,3.053336,1.548059,3.049377
1.544702,3.053391,1.547253,3.052601
1.544868,3.053421,1.548059,3.052601
1.544974,3.053411,1.546447,3.050989
1.545140,3.053442,1.545641,3.050989
1.545241,3.053472,1.548059,3.055018
1.545342,3.053507,1.551282,3.050989
1.545438,3.053522,1.548864,3.051795
1.545634,3.053588,1.552894,3.053406
1.545795,3.053668,1.550476,3.055018
1.546027,3.053714,1.546447,3.054213
1.546229,3.053804,1.550476,3.052601
1.546601,3.053850,1.552088,3.051795
1.546944,3.053910,1.552088,3.053406
1.547271,3.053975,1.552088,3.053406
1.547629,3.054086,1.554505,3.055018
1.548133,3.054167,1.550476,3.054213
1.548596,3.054263,1.555311,3.055018
1.549004,3.054323,1.552088,3.050989
1.549392,3.054394,1.555311,3.055018
1.549870,3.054489,1.556923,3.050989
1.550419,3.054560,1.557729,3.055018
1.550913,3.054575,1.558535,3.054213
1.551371,3.054686,1.555311,3.053406
1.551845,3.054746,1.560147,3.055018
1.552258,3.054807,1.560147,3.055018
1.552635,3.054837,1.560147,3.055824
1.553124,3.054943,1.561758,3.055018
1.553496,3.055028,1.560147,3.055018
1.553789,3.055109,1.564176,3.055018
1.554151,3.055184,1.559341,3.055018
1.554610,3.055285,1.560147,3.056630
1.555002,3.055436,1.559341,3.057436
1.555370,3.055522,1.560147,3.055018
1.555763,3.055623,1.559341,3.055824
1.556206,3.055713,1.560952,3.055824
1.556659,3.055874,1.564176,3.055018
1.557218,3.055910,1.561758,3.055018
1.557782,3.056036,1.566593,3.055018
1.558316,3.056172,1.566593,3.055824
1.558870,3.056348,1.566593,3.059854
1.559354,3.056398,1.564176,3.055018
1.559923,3.056534,1.568205,3.058242
1.560487,3.056670,1.566593,3.057436
1.560925,3.056801,1.564176,3.055018
1.561293,3.056897,1.563370,3.055018
1.561721,3.057043,1.570623,3.055824
1.562265,3.057249,1.568205,3.058242
1.562668,3.057365,1.573846,3.059048
1.563006,3.057471,1.568205,3.055824
1.563489,3.057612,1.569817,3.056630
1.563973,3.057859,1.571429,3.057436
1.564355,3.057975,1.568205,3.057436
1.564642,3.058161,1.567399,3.058242
1.565035,3.058332,1.573040,3.055824
1.565428,3.058478,1.572234,3.059048
1.565615,3.058549,1.564982,3.055018
1.565937,3.058725,1.568205,3.056630
1.566219,3.058891,1.567399,3.059854
1.566375,3.059012,1.564982,3.058242
1.566632,3.059073,1.569817,3.056630
1.566995,3.059163,1.571429,3.059854
1.567332,3.059299,1.571429,3.060659
1.567569,3.059420,1.568205,3.059854
1.567796,3.059475,1.568205,3.055018
1.568148,3.059611,1.569817,3.056630
1.568456,3.059753,1.571429,3.059854
1.568763,3.059828,1.569011,3.059048
1.568999,3.059858,1.569817,3.058242
1.569156,3.060050,1.568205,3.058242
1.569322,3.060186,1.569817,3.062271
1.569508,3.060251,1.572234,3.057436
1.569649,3.060307,1.568205,3.057436
1.569826,3.060437,1.571429,3.059854
1.570128,3.060604,1.573040,3.059854
1.570229,3.060589,1.569817,3.059048
1.570511,3.060735,1.573040,3.059048
1.570798,3.060861,1.573846,3.059048
1.571049,3.060961,1.577070,3.059854
1.571180,3.060951,1.573040,3.057436
1.571412,3.061087,1.578681,3.059854
1.571734,3.061223,1.576264,3.060659
1.572067,3.061324,1.581099,3.062271
1.572298,3.061324,1.579487,3.058242
1.572686,3.061450,1.580293,3.060659
1.573104,3.061556,1.582711,3.060659
1.573452,3.061676,1.576264,3.062271
1.573774,3.061812,1.581905,3.062271
1.574323,3.062019,1.584322,3.063883
1.574792,3.062215,1.585128,3.065495
1.575325,3.062346,1.585128,3.065495
1.575859,3.062543,1.585934,3.064689
1.576423,3.062779,1.584322,3.065495
1.576992,3.063006,1.589157,3.065495
1.577471,3.063162,1.587546,3.065495
1.578171,3.063359,1.585934,3.065495
1.578871,3.063600,1.593993,3.064689
1.579621,3.063832,1.593187,3.071941
1.580256,3.063988,1.590769,3.064689
1.580966,3.064275,1.594799,3.063077
1.581762,3.064552,1.592381,3.067912
1.582563,3.064744,1.596410,3.065495
1.583318,3.064935,1.595604,3.068718
1.584139,3.065227,1.598022,3.071136
1.584955,3.065524,1.598022,3.069524
1.585912,3.065796,1.598022,3.067912
1.586668,3.066018,1.602857,3.067106
1.587700,3.066416,1.601245,3.069524
1.588627,3.066779,1.602857,3.072747
1.589614,3.067096,1.610110,3.072747
1.590682,3.067469,1.609304,3.072747
1.591835,3.067902,1.609304,3.076777
1.592949,3.068325,1.610110,3.076777
1.593981,3.068687,1.610916,3.071136
1.595029,3.069080,1.610916,3.071941
1.596111,3.069524,1.611722,3.075165
1.597144,3.069937,1.612527,3.076777
1.598156,3.070244,1.613333,3.070330
1.599194,3.070652,1.616557,3.075971
1.600282,3.070949,1.615751,3.073553
1.601329,3.071246,1.621392,3.077582
1.602337,3.071518,1.615751,3.072747
1.603520,3.071936,1.625421,3.078388
1.604699,3.072354,1.624615,3.078388
1.605852,3.072702,1.623810,3.075971
1.606814,3.072999,1.619780,3.073553
1.607852,3.073346,1.623004,3.076777
1.608874,3.073754,1.622198,3.077582
1.609851,3.074062,1.622198,3.076777
1.610758,3.074394,1.623810,3.076777
1.611780,3.074757,1.622198,3.080000
1.612742,3.075119,1.625421,3.080000
1.613639,3.075386,1.623810,3.075165
1.614566,3.075719,1.623004,3.076777
1.615553,3.076051,1.623004,3.079194
1.616469,3.076343,1.627033,3.077582
1.617336,3.076550,1.625421,3.079194
1.618177,3.076857,1.628645,3.078388
1.619013,3.077129,1.628645,3.079194
1.619738,3.077345,1.627839,3.080000
1.620423,3.077446,1.627839,3.072747
1.621108,3.077683,1.626227,3.077582
1.621652,3.077829,1.629451,3.077582
1.622100,3.077935,1.627839,3.077582
1.622573,3.077975,1.625421,3.075165
1.623082,3.078131,1.631868,3.078388
1.623576,3.078267,1.625421,3.078388
1.624190,3.078353,1.633480,3.076777
1.624719,3.078453,1.628645,3.077582
1.625348,3.078610,1.636703,3.079194
1.626028,3.078705,1.636703,3.080806
1.626794,3.078877,1.639121,3.080806
1.627771,3.079088,1.652820,3.083223
1.628970,3.079300,1.654432,3.080806
1.630199,3.079496,1.663297,3.083223
1.631448,3.079607,1.662491,3.083223
1.632984,3.079894,1.671355,3.088059
1.634691,3.080267,1.675385,3.086447
1.636520,3.080624,1.680220,3.091282
1.638363,3.080881,1.683443,3.085641
1.640408,3.081269,1.684249,3.089670
1.642453,3.081667,1.688278,3.092894
1.644569,3.082050,1.691502,3.092894
1.646628,3.082392,1.693919,3.089670
1.648950,3.082840,1.695531,3.090476
1.651212,3.083269,1.695531,3.093700
1.653448,3.083712,1.701978,3.093700
1.655755,3.084140,1.702784,3.093700
1.658092,3.084623,1.701172,3.092894
1.660399,3.085077,1.701978,3.096117
1.662751,3.085485,1.704396,3.093700
1.665088,3.085968,1.701172,3.093700
1.667435,3.086457,1.704396,3.092894
1.669772,3.086890,1.703590,3.093700
1.672119,3.087283,1.701172,3.092088
1.674517,3.087731,1.700366,3.092088
1.676833,3.088194,1.698755,3.092088
1.679165,3.088617,1.701978,3.093700
1.681326,3.088985,1.699560,3.089670
1.683467,3.089378,1.697143,3.092894
1.685497,3.089751,1.698755,3.088059
1.687516,3.090108,1.695531,3.092088
1.689370,3.090416,1.695531,3.091282
1.691153,3.090733,1.696337,3.088865
1.692649,3.091025,1.698755,3.090476
1.693893,3.091257,1.699560,3.088865
1.694870,3.091433,1.696337,3.088865
1.695822,3.091660,1.696337,3.089670
1.696371,3.091811,1.692308,3.091282
1.696834,3.091836,1.689890,3.091282
1.697312,3.091906,1.692308,3.089670
1.697564,3.091962,1.688278,3.089670
1.697721,3.091942,1.689084,3.091282
1.697746,3.091846,1.689890,3.088059
1.697660,3.091806,1.688278,3.088059
1.697599,3.091770,1.689084,3.088059
1.697312,3.091680,1.689084,3.088059
1.696955,3.091503,1.686667,3.085641
1.696657,3.091342,1.690696,3.088059
1.696260,3.091166,1.687473,3.088865
1.695836,3.090914,1.689084,3.087253
1.695338,3.090667,1.687473,3.085641
1.694834,3.090506,1.686667,3.082417
1.694255,3.090280,1.684249,3.085641
1.693671,3.090048,1.679414,3.083223
1.692976,3.089766,1.677802,3.084835
1.692205,3.089584,1.678608,3.082417
1.691505,3.089428,1.679414,3.084835
1.690674,3.089081,1.675385,3.083223
1.689742,3.088809,1.672967,3.080806
1.688871,3.088537,1.672967,3.082417
1.687964,3.088265,1.670549,3.082417
1.687042,3.087927,1.670549,3.080806
1.686060,3.087640,1.668132,3.081612
1.685179,3.087353,1.668132,3.083223
1.684237,3.087111,1.666520,3.080806
1.683189,3.086769,1.664908,3.080000
1.682222,3.086457,1.664103,3.080806
1.681235,3.086170,1.662491,3.078388
1.680273,3.085898,1.669744,3.080806
1.679372,3.085540,1.662491,3.079194
1.678465,3.085263,1.660879,3.079194
1.677503,3.084936,1.662491,3.081612
1.676632,3.084664,1.660073,3.080806
1.675604,3.084402,1.657656,3.080000
1.674703,3.084150,1.662491,3.080000
1.673741,3.083898,1.656850,3.080000
1.672804,3.083596,1.659267,3.080000
1.671796,3.083314,1.655238,3.079194
1.670834,3.083097,1.653626,3.080000
1.669837,3.082866,1.656044,3.080806
1.668794,3.082594,1.656850,3.080000
1.667696,3.082427,1.653626,3.078388
1.666649,3.082211,1.654432,3.078388
1.665616,3.081974,1.656850,3.080000
1.664458,3.081717,1.650403,3.076777
1.663420,3.081450,1.651209,3.079194
1.662418,3.081274,1.651209,3.080000
1.661541,3.081078,1.650403,3.075971
1.660378,3.080740,1.640733,3.074359
1.659386,3.080649,1.639121,3.080000
1.658454,3.080463,1.638315,3.077582
1.657552,3.080317,1.641539,3.075971
1.656485,3.080131,1.636703,3.072747
1.655558,3.080015,1.636703,3.075971
1.654566,3.079859,1.636703,3.073553
1.653564,3.079652,1.636703,3.071941
1.652551,3.079395,1.635092,3.073553
1.651650,3.079254,1.634286,3.072747
1.650713,3.079159,1.634286,3.075165
1.649771,3.078927,1.634286,3.071941
1.648749,3.078725,1.631062,3.075165
1.647782,3.078569,1.629451,3.073553
1.646865,3.078408,1.631062,3.075971
1.645686,3.078121,1.627033,3.069524
1.644598,3.077869,1.626227,3.070330
1.643621,3.077638,1.626227,3.070330
1.642599,3.077421,1.631062,3.075971
1.641612,3.077124,1.625421,3.068718
1.640473,3.076927,1.623810,3.069524
1.639386,3.076655,1.620586,3.070330
1.638288,3.076328,1.618974,3.067106
1.637013,3.075970,1.618974,3.064689
1.635784,3.075683,1.618974,3.067912
1.634671,3.075396,1.615751,3.066300
1.633503,3.075079,1.618974,3.068718
1.632269,3.074731,1.614945,3.067912
1.631267,3.074475,1.614945,3.068718
1.630159,3.074288,1.615751,3.070330
1.629015,3.073966,1.612527,3.067106
1.627847,3.073649,1.610110,3.069524
1.626895,3.073382,1.610916,3.067106
1.625993,3.073120,1.612527,3.068718
1.625016,3.072767,1.610916,3.067106
1.624059,3.072455,1.610916,3.065495
1.623193,3.072143,1.610916,3.066300
1.622301,3.071850,1.610916,3.069524
1.621440,3.071523,1.608498,3.063077
1.620604,3.071296,1.605275,3.065495
1.619738,3.071055,1.609304,3.065495
1.618922,3.070722,1.608498,3.066300
1.618035,3.070345,1.608498,3.063077
1.617225,3.070098,1.605275,3.060659
1.616459,3.069831,1.605275,3.062271
1.615663,3.069514,1.606081,3.064689
1.614767,3.069206,1.605275,3.063883
1.614056,3.069015,1.599634,3.063883
1.613306,3.068829,1.603663,3.066300
1.612465,3.068572,1.598828,3.065495
1.611588,3.068340,1.599634,3.065495
1.610767,3.068128,1.597216,3.062271
1.610113,3.067892,1.602051,3.064689
1.609357,3.067660,1.598022,3.060659
1.608632,3.067514,1.598022,3.060659
1.608043,3.067323,1.597216,3.063077
1.607499,3.067141,1.598828,3.063077
1.606849,3.066849,1.596410,3.061465
1.606285,3.066688,1.598022,3.063883
1.605686,3.066497,1.593993,3.063077
1.605112,3.066270,1.593187,3.060659
1.604462,3.065948,1.594799,3.059854
1.603908,3.065761,1.598022,3.060659
1.603379,3.065535,1.593187,3.059048
1.602810,3.065328,1.597216,3.056630
1.602125,3.065046,1.593187,3.059048
1.601500,3.064895,1.593993,3.059048
1.600891,3.064749,1.590769,3.059048
1.600256,3.064542,1.593187,3.057436
1.599556,3.064361,1.590769,3.055824
1.598871,3.064205,1.585934,3.058242
1.598201,3.064034,1.585934,3.060659
1.597526,3.063802,1.589157,3.057436
1.596816,3.063686,1.585128,3.056630
1.596197,3.063555,1.585934,3.057436
1.595582,3.063379,1.587546,3.058242
1.594937,3.063132,1.585128,3.057436
1.594353,3.062976,1.585128,3.057436
1.593784,3.062774,1.584322,3.057436
1.593225,3.062548,1.585934,3.056630
1.592671,3.062316,1.585128,3.055018
1.592248,3.062200,1.583516,3.055018
1.591780,3.062069,1.585128,3.059048
1.591336,3.061878,1.582711,3.058242
1.590808,3.061702,1.582711,3.055018
1.590379,3.061576,1.584322,3.059854
1.589971,3.061430,1.585128,3.059048
1.589468,3.061314,1.577070,3.055018
1.588944,3.061213,1.582711,3.055018
1.588576,3.061148,1.581905,3.055018
1.588123,3.061042,1.582711,3.057436
1.587675,3.060906,1.585128,3.055824
1.587181,3.060770,1.581099,3.059048
1.586808,3.060664,1.581099,3.056630
1.586426,3.060594,1.581099,3.059854
1.585892,3.060377,1.577875,3.052601
1.585348,3.060256,1.575458,3.055018
1.584870,3.060125,1.573040,3.055018
1.584416,3.059954,1.577875,3.059048
1.583852,3.059712,1.576264,3.053406
1.583394,3.059611,1.571429,3.055018
1.582966,3.059465,1.576264,3.055018
1.582598,3.059269,1.571429,3.055018
1.582065,3.059093,1.571429,3.055018
1.581581,3.059012,1.568205,3.055018
1.581128,3.058926,1.568205,3.055018
1.580639,3.058750,1.574652,3.053406
1.580110,3.058619,1.571429,3.054213
1.579677,3.058529,1.567399,3.055018
1.579184,3.058443,1.570623,3.055018
1.578655,3.058337,1.564982,3.055018
1.578091,3.058262,1.565788,3.055018
1.577516,3.058126,1.566593,3.055018
1.576902,3.058005,1.569817,3.055018
1.576272,3.057778,1.564176,3.055018
1.575628,3.057672,1.566593,3.055018
1.575013,3.057536,1.564982,3.054213
1.574454,3.057441,1.564176,3.056630
1.573825,3.057285,1.560952,3.054213
1.573341,3.057204,1.566593,3.054213
1.572812,3.057058,1.566593,3.055018
1.572188,3.056972,1.566593,3.055018
1.571638,3.056851,1.563370,3.056630
1.571251,3.056836,1.569817,3.055018
1.570832,3.056846,1.569011,3.055824
1.570495,3.056841,1.568205,3.055018
1.570173,3.056806,1.569817,3.055824
1.570127,3.056962,1.573040,3.059048
1.570198,3.057144,1.578681,3.062271
1.570409,3.057269,1.581905,3.056630
1.570696,3.057516,1.585128,3.062271
1.571215,3.057798,1.589963,3.063077
1.571880,3.058126,1.595604,3.063883
1.572630,3.058413,1.598022,3.065495
1.573456,3.058856,1.602051,3.065495
1.574448,3.059259,1.603663,3.067912
1.575637,3.059672,1.606887,3.071941
1.576810,3.059974,1.608498,3.067912
1.578044,3.060422,1.608498,3.067912
1.579329,3.060926,1.610110,3.067912
1.580618,3.061430,1.612527,3.069524
1.581902,3.061818,1.613333,3.068718
1.583318,3.062341,1.614139,3.069524
1.584763,3.062865,1.614139,3.069524
1.586229,3.063379,1.614139,3.068718
1.587654,3.063807,1.613333,3.065495
1.589180,3.064341,1.618974,3.069524
1.590742,3.064865,1.616557,3.070330
1.592167,3.065283,1.610916,3.065495
1.593547,3.065706,1.610110,3.067106
1.595043,3.066139,1.610916,3.067106
1.596499,3.066517,1.610916,3.068718
1.597934,3.066894,1.610916,3.067106
1.599375,3.067317,1.610916,3.067106
1.600775,3.067710,1.610916,3.067912
1.602130,3.068053,1.610916,3.070330
1.603480,3.068295,1.610110,3.065495
1.604714,3.068637,1.610916,3.067912
1.605928,3.068959,1.609304,3.068718
1.607031,3.069161,1.612527,3.068718
1.608023,3.069312,1.608498,3.066300
1.608925,3.069529,1.610916,3.069524
1.609725,3.069670,1.610110,3.067106
1.610355,3.069775,1.613333,3.066300
1.610808,3.069775,1.610110,3.063883
1.611251,3.069826,1.612527,3.067912
1.611528,3.069861,1.610916,3.066300
1.611780,3.069821,1.610916,3.067106
1.611836,3.069795,1.610110,3.065495
1.611871,3.069806,1.610916,3.063883
1.611916,3.069750,1.608498,3.067912
1.611901,3.069594,1.610916,3.065495
1.611846,3.069518,1.610110,3.067106
1.611815,3.069468,1.610110,3.065495
1.611725,3.069322,1.610916,3.067106
1.611553,3.069161,1.607692,3.064689
1.611377,3.069035,1.609304,3.067912
1.611160,3.068924,1.606887,3.065495
1.610979,3.068758,1.602857,3.068718
1.610531,3.068551,1.602857,3.063077
1.610339,3.068456,1.601245,3.062271
1.610042,3.068330,1.599634,3.065495
1.609770,3.068194,1.600440,3.059854
1.609352,3.068053,1.598022,3.063077
1.608985,3.067992,1.598022,3.065495
1.608662,3.067917,1.598022,3.064689
1.608355,3.067816,1.605275,3.067106
1.607886,3.067675,1.598828,3.063883
1.607463,3.067600,1.598022,3.060659
1.606995,3.067509,1.593993,3.066300
1.606536,3.067302,1.598022,3.062271
1.605998,3.067227,1.590769,3.065495
1.605484,3.067081,1.593187,3.063077
1.605020,3.066960,1.598022,3.062271
1.604396,3.066723,1.592381,3.059854
1.603902,3.066592,1.596410,3.059048
1.603303,3.066446,1.588352,3.059854
1.602714,3.066295,1.594799,3.063077
1.602079,3.066013,1.587546,3.059854
1.601454,3.065776,1.592381,3.059048
1.600780,3.065550,1.589157,3.063077
1.600150,3.065358,1.593993,3.057436
1.599359,3.065101,1.585128,3.059048
1.598639,3.064940,1.589963,3.059854
1.597959,3.064764,1.587546,3.059854
1.597173,3.064542,1.585128,3.059048
1.596378,3.064356,1.585128,3.059048
1.595652,3.064195,1.585128,3.057436
1.594902,3.064054,1.583516,3.063077
1.594222,3.063807,1.583516,3.059048
1.593436,3.063641,1.585128,3.056630
1.592907,3.063485,1.585128,3.057436
1.592328,3.063369,1.586740,3.059048
1.591830,3.063177,1.585128,3.056630
1.591240,3.063067,1.584322,3.057436
1.590757,3.062946,1.585128,3.059048
1.590243,3.062785,1.585128,3.056630
1.589674,3.062533,1.581099,3.055824
1.589110,3.062331,1.581905,3.059048
1.588651,3.062200,1.583516,3.059048
1.588037,3.061959,1.580293,3.055018
1.587423,3.061727,1.578681,3.055018
1.586808,3.061551,1.576264,3.055824
1.586179,3.061359,1.572234,3.055824
1.585509,3.061153,1.577070,3.057436
1.584743,3.060901,1.573040,3.055018
1.584199,3.060775,1.573040,3.055824
1.583645,3.060614,1.574652,3.059854
1.583051,3.060402,1.570623,3.055018
1.582406,3.060186,1.571429,3.055824
1.581747,3.060055,1.568205,3.055018
1.581152,3.059974,1.570623,3.057436
1.580503,3.059737,1.571429,3.055018
1.579898,3.059516,1.570623,3.055018
1.579359,3.059375,1.569817,3.055018
1.578790,3.059214,1.569817,3.056630
1.578090,3.058947,1.567399,3.052601
1.577531,3.058770,1.566593,3.052601
1.576997,3.058549,1.567399,3.055018
1.576423,3.058317,1.569817,3.052601
1.575818,3.058065,1.561758,3.055018
1.575234,3.057919,1.564176,3.055018
1.574695,3.057743,1.564176,3.055018
1.574091,3.057551,1.561758,3.054213
1.573345,3.057290,1.563370,3.053406
1.572676,3.057149,1.564982,3.053406
1.572026,3.057002,1.560147,3.055018
1.571341,3.056796,1.559341,3.054213
1.570716,3.056630,1.560952,3.055018
1.570036,3.056479,1.561758,3.053406
1.569402,3.056353,1.564176,3.055018
1.568757,3.056166,1.560147,3.051795
1.568213,3.056111,1.560147,3.051795
1.567730,3.055995,1.560147,3.054213
1.567281,3.055940,1.561758,3.055018
1.566848,3.055814,1.560952,3.052601
1.566430,3.055723,1.560147,3.055018
1.566047,3.055673,1.559341,3.055018
1.565624,3.055567,1.559341,3.055018
1.565060,3.055441,1.558535,3.050183
1.564617,3.055386,1.556923,3.054213
1.564204,3.055320,1.556923,3.054213
1.563801,3.055209,1.557729,3.052601
1.563408,3.055089,1.555311,3.048571
1.563111,3.055094,1.558535,3.054213
1.562743,3.055084,1.560147,3.054213
1.562254,3.054988,1.551282,3.050183
1.561751,3.054907,1.555311,3.050183
1.561398,3.054847,1.553700,3.052601
1.561030,3.054791,1.553700,3.053406
1.560542,3.054676,1.553700,3.050989
1.560018,3.054645,1.548864,3.052601
1.559595,3.054570,1.548864,3.050989
1.559126,3.054504,1.555311,3.049377
1.558598,3.054358,1.547253,3.046154
1.558104,3.054227,1.548059,3.048571
1.557716,3.054202,1.547253,3.050183
1.557182,3.054081,1.548059,3.047765
1.556628,3.053880,1.545641,3.046960
1.556170,3.053789,1.546447,3.050183
1.555626,3.053673,1.544029,3.049377
1.555203,3.053547,1.550476,3.050183
1.554603,3.053381,1.540806,3.046960
1.554115,3.053285,1.539194,3.047765
1.553682,3.053245,1.546447,3.048571
1.553198,3.053074,1.548864,3.049377
1.552598,3.052968,1.542418,3.046154
1.552060,3.052822,1.538388,3.046154
1.551556,3.052767,1.541612,3.050183
1.550921,3.052560,1.542418,3.047765
1.550297,3.052429,1.542418,3.050183
1.549687,3.052253,1.540806,3.046154
1.549159,3.052112,1.541612,3.048571
1.548469,3.051885,1.537582,3.046154
1.547894,3.051684,1.540806,3.046154
1.547260,3.051482,1.538388,3.044542
1.546575,3.051321,1.538388,3.047765
1.545819,3.051049,1.534359,3.043736
1.545276,3.050888,1.537582,3.042125
1.544742,3.050702,1.537582,3.045348
1.544123,3.050541,1.532747,3.044542
1.543428,3.050314,1.532747,3.044542
1.542813,3.050158,1.534359,3.042930
1.542290,3.049992,1.533553,3.042930
1.541741,3.049800,1.531941,3.044542
1.541161,3.049568,1.533553,3.042930
1.540663,3.049417,1.533553,3.043736
1.540159,3.049301,1.532747,3.047765
1.539605,3.049090,1.532747,3.042930
1.539076,3.048919,1.532747,3.042930
1.538648,3.048768,1.532747,3.042930
1.538190,3.048632,1.533553,3.042930
1.537751,3.048345,1.528718,3.040513
1.537253,3.048168,1.531941,3.042930
1.536915,3.047992,1.531941,3.043736
1.536487,3.047740,1.531941,3.043736
1.535963,3.047398,1.528718,3.041319
1.535500,3.047186,1.531136,3.038095
1.535032,3.046904,1.528718,3.042125
1.534639,3.046698,1.525494,3.043736
1.534135,3.046421,1.525494,3.041319
1.533793,3.046264,1.527912,3.042125
1.533430,3.046063,1.529524,3.041319
1.532966,3.045882,1.531941,3.041319
1.532458,3.045645,1.524689,3.040513
1.532110,3.045509,1.519048,3.041319
1.531803,3.045398,1.527912,3.042125
1.531395,3.045237,1.523883,3.042125
1.531012,3.045030,1.524689,3.041319
1.530685,3.044915,1.527912,3.042125
1.530438,3.044799,1.524689,3.040513
1.530075,3.044597,1.523077,3.041319
1.529733,3.044446,1.522271,3.040513
1.529405,3.044295,1.520659,3.040513
1.529163,3.044214,1.524689,3.042930
1.528826,3.043978,1.523077,3.038095
1.528438,3.043867,1.523883,3.039707
1.528096,3.043761,1.521465,3.038095
1.527824,3.043630,1.520659,3.042125
1.527426,3.043444,1.519853,3.041319
1.527149,3.043323,1.522271,3.042125
1.526958,3.043202,1.523077,3.040513
1.526797,3.043111,1.524689,3.041319
1.526499,3.042955,1.522271,3.041319
1.526424,3.042955,1.527912,3.042125
1.526353,3.042976,1.525494,3.042930
1.526253,3.042945,1.529524,3.042125
1.526217,3.043006,1.531941,3.042125
1.526368,3.043162,1.535165,3.043736
1.526630,3.043368,1.537582,3.045348
1.526983,3.043509,1.540806,3.044542
1.527361,3.043666,1.541612,3.046154
1.527910,3.043852,1.544835,3.046960
1.528459,3.044109,1.544029,3.046960
1.528912,3.044230,1.545641,3.043736
1.529612,3.044497,1.546447,3.050183
1.530327,3.044769,1.547253,3.046960
1.531088,3.045061,1.553700,3.044542
1.531798,3.045313,1.549670,3.047765
1.532699,3.045595,1.553700,3.053406
1.533676,3.045892,1.555311,3.049377
1.534689,3.046204,1.556117,3.049377
1.535555,3.046486,1.555311,3.050183
1.536623,3.046808,1.554505,3.047765
1.537731,3.047156,1.559341,3.053406
1.538899,3.047463,1.556923,3.054213
1.539962,3.047791,1.559341,3.053406
1.541050,3.048128,1.557729,3.050989
1.542183,3.048460,1.558535,3.052601
1.543291,3.048738,1.557729,3.047765
1.544319,3.049080,1.557729,3.050183
1.545442,3.049428,1.556923,3.052601
1.546490,3.049755,1.558535,3.050989
1.547492,3.050022,1.556117,3.044542
1.548388,3.050354,1.556117,3.049377
1.549381,3.050672,1.556923,3.050183
1.550196,3.050918,1.556923,3.050183
1.551002,3.051095,1.555311,3.047765
1.551853,3.051351,1.554505,3.046960
1.552634,3.051558,1.557729,3.050183
1.553324,3.051684,1.553700,3.050989
1.553808,3.051780,1.556117,3.049377
1.554372,3.051946,1.559341,3.049377
1.554835,3.052142,1.554505,3.050183
1.555299,3.052238,1.560147,3.049377
1.555626,3.052308,1.553700,3.046960
1.556105,3.052429,1.557729,3.051795
1.556452,3.052490,1.559341,3.053406
1.556765,3.052530,1.554505,3.047765
1.556976,3.052550,1.558535,3.050989
1.557213,3.052570,1.558535,3.049377
1.557369,3.052636,1.560147,3.054213
1.557435,3.052570,1.557729,3.049377
1.557455,3.052545,1.558535,3.050183
1.557545,3.052540,1.559341,3.050183
1.557555,3.052530,1.553700,3.046960
1.557465,3.052449,1.559341,3.050183
1.557364,3.052490,1.556923,3.050989
1.557334,3.052444,1.557729,3.049377
1.557354,3.052444,1.556923,3.046154
1.557228,3.052318,1.554505,3.045348
1.557163,3.052324,1.556923,3.049377
1.557127,3.052308,1.556923,3.047765
1.557017,3.052278,1.549670,3.048571
1.556896,3.052193,1.551282,3.050183
1.556946,3.052172,1.552088,3.046960
1.556906,3.052177,1.556117,3.050989
1.556876,3.052087,1.556923,3.045348
1.556866,3.052087,1.553700,3.049377
1.556911,3.052052,1.554505,3.045348
1.556916,3.052036,1.556923,3.050183
1.556871,3.051931,1.553700,3.049377
1.556851,3.051875,1.552088,3.044542
1.556861,3.051840,1.550476,3.046960
1.556850,3.051795,1.552894,3.050989
1.556735,3.051618,1.553700,3.046154
1.556649,3.051558,1.557729,3.044542
1.556594,3.051452,1.551282,3.045348
1.556427,3.051432,1.555311,3.055018
1.556292,3.051316,1.555311,3.049377
1.556135,3.051276,1.546447,3.046960
1.556065,3.051266,1.555311,3.042930
1.555873,3.051155,1.557729,3.048571
1.555727,3.051029,1.554505,3.046154
1.555647,3.050994,1.552088,3.046960
1.555592,3.051024,1.553700,3.049377
1.555461,3.050938,1.552088,3.042930
1.555305,3.050928,1.552088,3.046960
1.555219,3.050888,1.556117,3.047765
1.555219,3.050838,1.553700,3.050183
1.555083,3.050727,1.553700,3.043736
1.554972,3.050666,1.550476,3.043736
1.554902,3.050682,1.551282,3.046154
1.554866,3.050712,1.551282,3.046960
1.554725,3.050586,1.554505,3.047765
1.554725,3.050541,1.553700,3.044542
1.554705,3.050525,1.548864,3.046960
1.554564,3.050480,1.550476,3.050183
1.554448,3.050374,1.551282,3.045348
1.554423,3.050394,1.549670,3.045348
1.554312,3.050374,1.549670,3.046154
1.554161,3.050339,1.553700,3.047765
1.553974,3.050228,1.550476,3.046960
1.553874,3.050269,1.550476,3.046960
1.553728,3.050344,1.548864,3.049377
1.553547,3.050269,1.552088,3.049377
1.553265,3.050213,1.547253,3.047765
1.553174,3.050269,1.548059,3.043736
1.553063,3.050299,1.551282,3.046154
1.552857,3.050223,1.547253,3.043736
1.552701,3.050173,1.548864,3.050989
1.552580,3.050153,1.546447,3.046154
1.552464,3.050097,1.546447,3.043736
1.552247,3.049911,1.547253,3.043736
1.552151,3.049815,1.546447,3.041319
1.551920,3.049825,1.548059,3.044542
1.551698,3.049780,1.546447,3.044542
1.551411,3.049594,1.545641,3.043736
1.551194,3.049503,1.544835,3.046154
1.550973,3.049483,1.546447,3.046960
1.550776,3.049377,1.546447,3.044542
1.550393,3.049196,1.542418,3.042930
1.550167,3.049130,1.548864,3.042125
1.549865,3.049110,1.544835,3.043736
1.549668,3.048984,1.544029,3.043736
1.549361,3.048904,1.546447,3.042125
1.549104,3.048858,1.542418,3.044542
1.548837,3.048894,1.544029,3.046960
1.548581,3.048758,1.546447,3.042930
1.548283,3.048692,1.545641,3.042930
1.548082,3.048601,1.541612,3.042125
1.547800,3.048551,1.546447,3.046960
1.547548,3.048360,1.542418,3.042930
1.547291,3.048309,1.541612,3.043736
1.547004,3.048229,1.544835,3.044542
1.546702,3.048113,1.546447,3.047765
1.546365,3.047916,1.537582,3.042125
1.546123,3.047881,1.537582,3.042125
1.545921,3.047775,1.542418,3.042930
1.545609,3.047614,1.542418,3.042125
1.545151,3.047453,1.537582,3.042125
1.544859,3.047418,1.537582,3.042930
1.544566,3.047332,1.539194,3.044542
1.544335,3.047216,1.539194,3.041319
1.543992,3.047075,1.539194,3.044542
1.543710,3.047035,1.538388,3.042125
1.543343,3.047035,1.535971,3.043736
1.543126,3.046899,1.541612,3.042930
1.542905,3.046864,1.540806,3.042930
1.542768,3.046844,1.540000,3.043736
1.542622,3.046879,1.541612,3.049377
1.542340,3.046713,1.539194,3.042125
1.541983,3.046662,1.533553,3.042125
1.541660,3.046662,1.535971,3.042930
1.541313,3.046577,1.535971,3.042930
1.540940,3.046441,1.534359,3.040513
1.540567,3.046385,1.533553,3.042930
1.540265,3.046239,1.533553,3.042930
1.540054,3.046164,1.531136,3.041319
1.539716,3.045942,1.532747,3.042125
1.539404,3.045882,1.533553,3.041319
1.539107,3.045816,1.535971,3.041319
1.538719,3.045741,1.535971,3.042125
1.538361,3.045620,1.532747,3.042125
1.538079,3.045615,1.538388,3.042125
1.537767,3.045574,1.533553,3.042930
1.537490,3.045524,1.532747,3.044542
1.537238,3.045519,1.535971,3.042125
1.537062,3.045494,1.535165,3.042930
1.536886,3.045428,1.534359,3.043736
1.536619,3.045338,1.534359,3.040513
1.536437,3.045368,1.533553,3.041319
1.536327,3.045307,1.533553,3.043736
1.536216,3.045323,1.534359,3.042125
1.535989,3.045227,1.529524,3.042125
1.535707,3.045182,1.531136,3.042125
1.535491,3.045177,1.529524,3.042125
1.535329,3.045111,1.531136,3.041319
1.535088,3.045041,1.531136,3.042125
1.534775,3.045010,1.523077,3.043736
1.534453,3.044894,1.524689,3.042125
1.534136,3.044829,1.531136,3.042125
1.533672,3.044663,1.527912,3.041319
1.533426,3.044597,1.531136,3.042125
1.533204,3.044653,1.531136,3.043736
1.533002,3.044552,1.527912,3.042125
1.532776,3.044537,1.525494,3.041319
1.532615,3.044527,1.526300,3.041319
1.532479,3.044522,1.528718,3.044542
1.532262,3.044451,1.523077,3.042125
1.532010,3.044421,1.524689,3.042125
1.531753,3.044441,1.527912,3.042125
1.531602,3.044421,1.527912,3.042125
1.531386,3.044330,1.524689,3.038095
1.531210,3.044310,1.523077,3.038095
1.530988,3.044295,1.525494,3.040513
1.530787,3.044270,1.527912,3.044542
1.530484,3.044159,1.523077,3.041319
1.530273,3.044134,1.524689,3.041319
1.529970,3.044053,1.522271,3.042125
1.529643,3.043963,1.526300,3.039707
1.529225,3.043882,1.521465,3.040513
1.528948,3.043872,1.527912,3.041319
1.528605,3.043822,1.523077,3.041319
1.528228,3.043771,1.524689,3.041319
1.527769,3.043660,1.518242,3.042125
1.527513,3.043645,1.524689,3.042125
1.527215,3.043630,1.519853,3.042125
1.526878,3.043565,1.523883,3.040513
1.526485,3.043535,1.519853,3.042125
1.526274,3.043484,1.523883,3.039707
1.526062,3.043444,1.522271,3.041319
1.525750,3.043409,1.519048,3.039707
1.525427,3.043368,1.520659,3.042125
1.525191,3.043373,1.519048,3.042125
1.524964,3.043373,1.519048,3.043736
1.524692,3.043207,1.521465,3.038901
1.524511,3.043202,1.521465,3.040513
1.524309,3.043142,1.519853,3.041319
1.524093,3.043106,1.523077,3.041319
1.523831,3.043056,1.522271,3.042125
1.523589,3.043061,1.521465,3.041319
1.523257,3.043066,1.520659,3.038901
1.522980,3.043016,1.518242,3.039707
1.522612,3.042991,1.515018,3.038901
1.522264,3.042996,1.515018,3.041319
1.522002,3.042970,1.517436,3.040513
1.521730,3.042915,1.515018,3.039707
1.521383,3.042880,1.514212,3.039707
1.521292,3.042885,1.521465,3.042125
1.521181,3.042900,1.521465,3.042930
1.521040,3.042829,1.515824,3.041319
1.520944,3.042855,1.517436,3.040513
1.520854,3.042824,1.518242,3.039707
1.520718,3.042809,1.519853,3.039707
1.520511,3.042693,1.520659,3.036484
1.520420,3.042673,1.517436,3.040513
1.520431,3.042673,1.519853,3.040513
1.520390,3.042698,1.517436,3.042930
1.520219,3.042658,1.516630,3.042125
1.520184,3.042683,1.523077,3.038095
1.520310,3.042754,1.524689,3.042125
1.520390,3.042804,1.525494,3.041319
1.520390,3.042824,1.524689,3.042125
1.520496,3.042920,1.527912,3.042125
1.520647,3.043081,1.527912,3.046154
1.520914,3.043197,1.525494,3.042930
1.521246,3.043373,1.532747,3.045348
1.521669,3.043610,1.533553,3.046154
1.522148,3.043912,1.535165,3.049377
1.522677,3.044109,1.539194,3.044542
1.523296,3.044381,1.540806,3.049377
1.524001,3.044683,1.546447,3.049377
1.524848,3.045035,1.545641,3.051795
1.525724,3.045297,1.546447,3.047765
1.526766,3.045665,1.547253,3.050989
1.527728,3.046003,1.547253,3.050183
1.528776,3.046350,1.548059,3.050183
1.529703,3.046652,1.548059,3.049377
1.530816,3.046990,1.553700,3.052601
1.531909,3.047377,1.553700,3.050183
1.532941,3.047710,1.554505,3.052601
1.533828,3.048022,1.550476,3.051795
1.534815,3.048425,1.552088,3.050183
1.535722,3.048793,1.553700,3.055018
1.536754,3.049100,1.552088,3.050183
1.537696,3.049422,1.551282,3.050183
1.538794,3.049775,1.551282,3.051795
1.539816,3.050158,1.552088,3.053406
1.540723,3.050399,1.547253,3.050989
1.541675,3.050676,1.550476,3.051795
1.542717,3.051024,1.548864,3.051795
1.543800,3.051351,1.554505,3.053406
1.544576,3.051608,1.551282,3.047765
1.545508,3.051941,1.553700,3.050989
1.546470,3.052278,1.553700,3.050183
1.547421,3.052525,1.555311,3.051795
1.548202,3.052666,1.549670,3.050989
1.548937,3.052883,1.556923,3.054213
1.549668,3.053034,1.556923,3.050183
1.550333,3.053155,1.549670,3.047765
1.550821,3.053160,1.555311,3.050183
1.551199,3.053331,1.546447,3.050183
1.551496,3.053396,1.551282,3.053406
1.551682,3.053421,1.550476,3.050183
1.551788,3.053386,1.550476,3.047765
1.551964,3.053442,1.547253,3.050183
1.552040,3.053442,1.553700,3.050989
1.552156,3.053351,1.551282,3.046960
1.552156,3.053331,1.551282,3.049377
1.552337,3.053346,1.553700,3.049377
1.552382,3.053336,1.553700,3.054213
1.552428,3.053225,1.547253,3.046154
1.552372,3.053180,1.551282,3.050183
1.552377,3.053165,1.550476,3.050183
1.552407,3.053129,1.548059,3.052601
1.552463,3.053044,1.552088,3.050183
1.552513,3.053104,1.553700,3.050989
1.552619,3.053094,1.556117,3.048571
1.552609,3.053109,1.552088,3.050183
1.552528,3.053049,1.548864,3.049377
1.552493,3.053084,1.553700,3.049377
1.552463,3.053114,1.553700,3.050989
1.552443,3.053074,1.554505,3.050989
1.552267,3.053049,1.547253,3.049377
1.552166,3.052993,1.546447,3.049377
1.551838,3.052953,1.546447,3.050989
1.551572,3.052817,1.542418,3.049377
1.551279,3.052752,1.546447,3.046154
1.551103,3.052701,1.545641,3.047765
1.550927,3.052656,1.546447,3.050183
1.550514,3.052520,1.542418,3.047765
1.550161,3.052424,1.546447,3.050989
1.549819,3.052364,1.540806,3.046154
1.549628,3.052253,1.541612,3.053406
1.549275,3.052082,1.540000,3.045348
1.549013,3.051976,1.538388,3.051795
1.548706,3.051905,1.541612,3.046154
1.548318,3.051795,1.542418,3.042930
1.547895,3.051639,1.538388,3.044542
1.547543,3.051608,1.536777,3.046960
1.547210,3.051613,1.541612,3.046154
1.546752,3.051457,1.535971,3.046154
1.546203,3.051351,1.536777,3.046154
1.545755,3.051266,1.533553,3.045348
1.545316,3.051276,1.538388,3.050183
1.544823,3.051125,1.533553,3.047765
1.544309,3.051009,1.535971,3.047765
1.543780,3.050959,1.535165,3.042930
1.543287,3.050863,1.538388,3.048571
1.542808,3.050712,1.544835,3.043736
1.542290,3.050666,1.537582,3.046154
1.541821,3.050576,1.533553,3.049377
1.541594,3.050520,1.540806,3.049377
1.541106,3.050389,1.535971,3.046154
1.540708,3.050309,1.537582,3.045348
1.540431,3.050213,1.538388,3.046154
1.540184,3.050173,1.535971,3.044542
1.539841,3.050042,1.533553,3.043736
1.539529,3.050067,1.535971,3.044542
1.539282,3.050067,1.535971,3.046960
1.538940,3.049956,1.537582,3.047765
1.538522,3.049866,1.533553,3.047765
1.538245,3.049855,1.535165,3.046960
1.537938,3.049840,1.534359,3.050183
1.537620,3.049770,1.531136,3.044542
1.537232,3.049719,1.531941,3.046960
1.537006,3.049689,1.532747,3.046154
1.536829,3.049735,1.535971,3.050183
1.536482,3.049558,1.531136,3.042125
1.536281,3.049463,1.532747,3.043736
1.536074,3.049397,1.531136,3.046154
1.535792,3.049327,1.531136,3.046960
1.535565,3.049145,1.529524,3.042125
1.535389,3.049181,1.533553,3.046960
1.535183,3.049070,1.527912,3.042930
1.534921,3.048969,1.527912,3.041319
1.534598,3.048742,1.526300,3.042125
1.534407,3.048667,1.527912,3.042125
1.534200,3.048586,1.531941,3.042125
1.533984,3.048420,1.533553,3.042125
1.533722,3.048269,1.527912,3.041319
1.533475,3.048239,1.532747,3.042125
1.533324,3.048143,1.530330,3.049377
1.533168,3.048017,1.528718,3.041319
1.532780,3.047891,1.531136,3.044542
1.532579,3.047745,1.530330,3.042930
1.532377,3.047634,1.531136,3.046960
1.532070,3.047413,1.527106,3.039707
1.531667,3.047272,1.523077,3.044542
1.531390,3.047121,1.523883,3.042125
1.531219,3.046990,1.527912,3.042930
1.530776,3.046728,1.525494,3.041319
1.530473,3.046627,1.527912,3.042125
1.530332,3.046481,1.525494,3.042125
1.530045,3.046340,1.523883,3.043736
1.529627,3.046088,1.519853,3.039707
1.529380,3.045967,1.523077,3.041319
1.529209,3.045826,1.524689,3.042930
1.528992,3.045705,1.521465,3.042930
1.528635,3.045464,1.523077,3.041319
1.528418,3.045413,1.522271,3.042125
1.528061,3.045363,1.522271,3.042125
1.527713,3.045247,1.518242,3.042125
1.527366,3.045136,1.521465,3.040513
1.527089,3.045045,1.523077,3.042125
1.526751,3.044925,1.519853,3.042930
1.526545,3.044809,1.523077,3.042125
1.526293,3.044763,1.522271,3.042125
1.526122,3.044708,1.523077,3.042125
1.525970,3.044648,1.521465,3.042125
1.525734,3.044507,1.520659,3.038095
1.525573,3.044426,1.522271,3.041319
1.525346,3.044361,1.521465,3.042125
1.525129,3.044255,1.528718,3.040513
1.524822,3.044073,1.521465,3.040513
1.524515,3.044018,1.519853,3.041319
1.524273,3.043897,1.523077,3.041319
1.524097,3.043852,1.523077,3.039707
1.523754,3.043736,1.519048,3.039707
1.523482,3.043751,1.526300,3.042125
1.523331,3.043721,1.519048,3.042930
1.523125,3.043676,1.518242,3.042125
1.522792,3.043524,1.518242,3.040513
1.522717,3.043519,1.520659,3.041319
1.522576,3.043509,1.519853,3.042125
1.522248,3.043419,1.516630,3.039707
1.522092,3.043373,1.519048,3.041319
1.522067,3.043394,1.518242,3.039707
1.521951,3.043383,1.521465,3.041319
1.521695,3.043298,1.519048,3.040513
1.521518,3.043278,1.519048,3.041319
1.521246,3.043252,1.516630,3.040513
1.521141,3.043212,1.517436,3.041319
1.520934,3.043096,1.515018,3.039707
1.520763,3.043076,1.518242,3.039707
1.520617,3.043031,1.513407,3.040513
1.520456,3.042965,1.513407,3.038901
1.520143,3.042829,1.511795,3.040513
1.519846,3.042819,1.510183,3.038095
1.519599,3.042839,1.512601,3.039707
1.519322,3.042799,1.513407,3.040513
1.518974,3.042754,1.509377,3.039707
1.518662,3.042764,1.514212,3.041319
1.518345,3.042794,1.511795,3.041319
1.517992,3.042729,1.511795,3.040513
1.517605,3.042673,1.509377,3.037289
1.517272,3.042673,1.508571,3.039707
1.517030,3.042623,1.511795,3.039707
1.516602,3.042547,1.507766,3.034872
1.516134,3.042477,1.508571,3.038095
1.515771,3.042426,1.507766,3.040513
1.515383,3.042371,1.510989,3.036484
1.515016,3.042270,1.509377,3.039707
1.514764,3.042240,1.508571,3.042125
1.514427,3.042230,1.508571,3.040513
1.514039,3.042210,1.507766,3.041319
1.513646,3.042139,1.506960,3.041319
1.513298,3.042154,1.509377,3.039707
1.512916,3.042124,1.507766,3.039707
1.512578,3.042084,1.510989,3.038095
1.512155,3.042018,1.507766,3.038095
1.511792,3.042018,1.506960,3.038095
1.511379,3.041993,1.503736,3.040513
1.511107,3.041943,1.506960,3.038901
1.510725,3.041943,1.506154,3.039707
1.510468,3.041973,1.506154,3.037289
1.510206,3.041963,1.507766,3.042125
1.509818,3.041898,1.503736,3.036484
1.509370,3.041852,1.504542,3.038095
1.509022,3.041872,1.506154,3.039707
1.508851,3.041862,1.507766,3.041319
1.508403,3.041752,1.504542,3.034872
1.508075,3.041762,1.503736,3.039707
1.507763,3.041736,1.498901,3.040513
1.507572,3.041726,1.506154,3.041319
1.507239,3.041636,1.502125,3.036484
1.506997,3.041631,1.502930,3.040513
1.506751,3.041616,1.500513,3.039707
1.506615,3.041580,1.503736,3.036484
1.506313,3.041555,1.499707,3.036484
1.506166,3.041600,1.507766,3.039707
1.506035,3.041656,1.499707,3.043736
1.505839,3.041691,1.502930,3.039707
1.505784,3.041721,1.506154,3.038901
1.505748,3.041777,1.507766,3.040513
1.505678,3.041827,1.509377,3.042125
1.505592,3.041847,1.506154,3.039707
1.505592,3.041908,1.507766,3.038901
1.505617,3.041953,1.509377,3.039707
1.505758,3.042024,1.510183,3.042125
1.505899,3.042039,1.507766,3.041319
1.506035,3.042170,1.513407,3.042125
1.506292,3.042306,1.513407,3.042125
1.506645,3.042477,1.515018,3.044542
1.506912,3.042552,1.511795,3.042930
1.507264,3.042739,1.517436,3.044542
1.507723,3.042925,1.521465,3.043736
1.508287,3.043132,1.528718,3.047765
1.508821,3.043338,1.524689,3.046154
1.509652,3.043650,1.529524,3.046960
1.510518,3.044048,1.529524,3.046960
1.511490,3.044345,1.530330,3.049377
1.512256,3.044673,1.529524,3.046960
1.513278,3.045000,1.533553,3.050989
1.514235,3.045343,1.533553,3.050183
1.515202,3.045635,1.533553,3.050989
1.516084,3.045947,1.533553,3.049377
1.517056,3.046295,1.533553,3.050183
1.518008,3.046677,1.534359,3.050989
1.518950,3.046894,1.533553,3.045348
1.519826,3.047201,1.534359,3.044542
1.520803,3.047534,1.532747,3.046154
1.521735,3.047770,1.531941,3.052601
1.522551,3.047977,1.531941,3.043736
1.523382,3.048219,1.531941,3.046154
1.524148,3.048506,1.532747,3.047765
1.524883,3.048687,1.534359,3.044542
1.525512,3.048818,1.531136,3.044542
1.526187,3.049035,1.526300,3.044542
1.526862,3.049256,1.529524,3.046154
1.527476,3.049407,1.527912,3.046154
1.527930,3.049518,1.525494,3.042930
1.528343,3.049709,1.524689,3.045348
1.528806,3.049871,1.528718,3.049377
1.529194,3.049916,1.528718,3.043736
1.529486,3.049971,1.525494,3.044542
1.529914,3.050112,1.525494,3.045348
1.530267,3.050208,1.533553,3.043736
1.530493,3.050158,1.524689,3.043736
1.530760,3.050193,1.533553,3.048571
1.531027,3.050248,1.531136,3.046960
1.531138,3.050324,1.529524,3.050183
1.531193,3.050173,1.531941,3.045348
1.531103,3.050092,1.528718,3.046154
1.531012,3.050022,1.527912,3.044542
1.530926,3.049991,1.531941,3.046960
1.530815,3.049785,1.527912,3.045348
1.530765,3.049750,1.529524,3.046960
1.530700,3.049745,1.532747,3.046960
1.530674,3.049694,1.531941,3.044542
1.530629,3.049568,1.529524,3.045348
1.530594,3.049659,1.533553,3.046960
1.530589,3.049720,1.533553,3.049377
1.530558,3.049659,1.531941,3.050183
1.530564,3.049704,1.531136,3.049377
1.530614,3.049750,1.531136,3.050183
1.530775,3.049825,1.533553,3.051795
1.530820,3.049735,1.531941,3.046960
1.530901,3.049780,1.533553,3.045348
1.531027,3.049861,1.533553,3.047765
1.531223,3.049936,1.533553,3.049377
1.531254,3.049866,1.533553,3.044542
1.531370,3.049861,1.533553,3.045348
1.531551,3.049926,1.533553,3.046154
1.531783,3.049901,1.531941,3.044542
1.531883,3.049861,1.531941,3.046154
1.532019,3.049941,1.531941,3.044542
1.532176,3.049976,1.532747,3.047765
1.532301,3.049961,1.531136,3.046960
1.532347,3.049921,1.531941,3.046154
1.532306,3.049971,1.528718,3.045348
1.532241,3.050037,1.529524,3.050989
1.532241,3.050007,1.532747,3.046960
1.532120,3.049941,1.531136,3.046154
1.532039,3.049961,1.530330,3.047765
1.532070,3.050027,1.526300,3.050989
1.532070,3.049936,1.527912,3.042125
1.532055,3.049921,1.531136,3.044542
1.532090,3.049997,1.532747,3.046154
1.532080,3.050037,1.532747,3.049377
1.532004,3.049840,1.527912,3.042125
1.531858,3.049815,1.529524,3.043736
1.531778,3.049760,1.525494,3.046154
1.531697,3.049669,1.528718,3.046154
1.531440,3.049498,1.528718,3.041319
1.531340,3.049448,1.527912,3.043736
1.531103,3.049362,1.527912,3.046960
1.530937,3.049246,1.521465,3.046154
1.530599,3.049045,1.522271,3.042125
1.530317,3.048974,1.523077,3.044542
1.530005,3.048964,1.525494,3.046154
1.529718,3.048843,1.525494,3.044542
1.529416,3.048687,1.522271,3.043736
1.529214,3.048662,1.527912,3.043736
1.528987,3.048692,1.524689,3.046154
1.528726,3.048596,1.522271,3.043736
1.528529,3.048627,1.525494,3.044542
1.528424,3.048617,1.526300,3.047765
1.528323,3.048571,1.528718,3.045348
1.528177,3.048385,1.525494,3.042125
1.528061,3.048350,1.526300,3.042125
1.527905,3.048309,1.523077,3.044542
1.527834,3.048360,1.526300,3.046154
1.527618,3.048143,1.523883,3.042125
1.527376,3.048057,1.525494,3.043736
1.527220,3.047972,1.523077,3.044542
1.527038,3.047851,1.523883,3.042125
1.526691,3.047644,1.519048,3.042125
1.526464,3.047619,1.523077,3.042125
1.526187,3.047564,1.519853,3.042125
1.525860,3.047418,1.518242,3.042125
1.525432,3.047221,1.516630,3.042125
1.525109,3.047206,1.515824,3.042930
1.524842,3.047166,1.519853,3.044542
1.524490,3.047060,1.515018,3.042930
1.524127,3.046939,1.520659,3.043736
1.523901,3.046904,1.519048,3.042125
1.523568,3.046834,1.518242,3.041319
1.523321,3.046657,1.519048,3.042125
1.523050,3.046592,1.518242,3.042125
1.522863,3.046562,1.515018,3.042125
1.522783,3.046577,1.519048,3.042930
1.522642,3.046380,1.519048,3.040513
1.522526,3.046325,1.519853,3.042125
1.522395,3.046274,1.518242,3.042125
1.522264,3.046184,1.520659,3.041319
1.522057,3.046008,1.516630,3.042125
1.521790,3.045912,1.521465,3.042125
1.521362,3.045756,1.512601,3.042125
1.521035,3.045600,1.514212,3.042125
1.520581,3.045433,1.511795,3.039707
1.520178,3.045393,1.519048,3.041319
1.519766,3.045307,1.516630,3.042125
1.519388,3.045166,1.510183,3.041319
1.518985,3.044985,1.511795,3.042125
1.518713,3.044930,1.514212,3.042125
1.518411,3.044859,1.513407,3.042930
1.518093,3.044693,1.511795,3.041319
1.517766,3.044638,1.507766,3.042125
1.517690,3.044638,1.510989,3.042125
1.517564,3.044633,1.515824,3.044542
1.517393,3.044471,1.515018,3.041319
1.517222,3.044512,1.516630,3.042125
1.517106,3.044456,1.512601,3.042125
1.517005,3.044350,1.515824,3.042125
1.516804,3.044189,1.510183,3.042125
1.516703,3.044179,1.515018,3.042125
1.516572,3.044109,1.513407,3.040513
1.516411,3.044018,1.519853,3.042125
1.516224,3.043927,1.511795,3.041319
1.516124,3.043973,1.515824,3.042125
1.515947,3.043958,1.512601,3.042930
1.515791,3.043897,1.515018,3.040513
1.515479,3.043791,1.512601,3.039707
1.515303,3.043801,1.510183,3.042125
1.515141,3.043827,1.507766,3.042125
1.514910,3.043741,1.508571,3.040513
1.514628,3.043706,1.510183,3.042125
1.514416,3.043706,1.512601,3.041319
1.514401,3.043706,1.511795,3.042125
1.514250,3.043620,1.507766,3.039707
1.514003,3.043575,1.508571,3.042125
1.513822,3.043540,1.507766,3.040513
1.513661,3.043565,1.510183,3.042125
1.513424,3.043449,1.507766,3.036484
1.513203,3.043434,1.507766,3.038095
1.513097,3.043388,1.509377,3.041319
1.512870,3.043328,1.509377,3.042125
1.512623,3.043212,1.507766,3.038901
1.512472,3.043207,1.507766,3.041319
1.512291,3.043237,1.507766,3.041319
1.512004,3.043172,1.511795,3.039707
1.511651,3.043031,1.506960,3.038095
1.511515,3.043041,1.515824,3.040513
1.511299,3.042970,1.507766,3.040513
1.511067,3.042935,1.507766,3.039707
1.510820,3.042965,1.506154,3.040513
1.510654,3.042945,1.508571,3.041319
1.510443,3.042905,1.510989,3.042125
1.510216,3.042865,1.507766,3.041319
1.510065,3.042829,1.507766,3.039707
1.509879,3.042794,1.506960,3.042125
1.509602,3.042754,1.505348,3.038095
1.509385,3.042663,1.506960,3.039707
1.509178,3.042653,1.506154,3.041319
1.509022,3.042583,1.506960,3.042125
1.508811,3.042487,1.506154,3.042125
1.508524,3.042376,1.507766,3.040513
1.508257,3.042341,1.507766,3.038095
1.508055,3.042280,1.505348,3.040513
1.507803,3.042240,1.498901,3.038901
1.507420,3.042139,1.498901,3.039707
1.507254,3.042154,1.503736,3.040513
1.507113,3.042160,1.505348,3.042125
1.507008,3.042144,1.507766,3.037289
1.506866,3.042104,1.505348,3.039707
1.506816,3.042139,1.507766,3.041319
1.506882,3.042144,1.507766,3.039707
1.506841,3.042124,1.505348,3.039707
1.506857,3.042195,1.507766,3.042125
1.506872,3.042290,1.507766,3.042125
1.506922,3.042401,1.512601,3.042125
1.507038,3.042371,1.516630,3.041319
1.507204,3.042437,1.515018,3.042125
1.507441,3.042567,1.512601,3.041319
1.507784,3.042678,1.519048,3.042930
1.508020,3.042703,1.514212,3.042125
1.508348,3.042819,1.517436,3.044542
1.508781,3.042986,1.518242,3.048571
1.509269,3.043111,1.520659,3.045348
1.509652,3.043263,1.520659,3.043736
1.510271,3.043489,1.527912,3.043736
1.510946,3.043766,1.529524,3.048571
1.511485,3.043932,1.520659,3.045348
1.512090,3.044119,1.526300,3.047765
1.512775,3.044340,1.528718,3.044542
1.513445,3.044587,1.529524,3.049377
1.514104,3.044753,1.528718,3.042125
1.514739,3.044985,1.526300,3.046154
1.515454,3.045182,1.528718,3.043736
1.516270,3.045464,1.525494,3.050183
1.516955,3.045584,1.526300,3.042125
1.517751,3.045801,1.529524,3.046960
1.518516,3.046018,1.525494,3.044542
1.519257,3.046128,1.525494,3.045348
1.519906,3.046254,1.522271,3.043736
1.520536,3.046416,1.525494,3.046154
1.521246,3.046562,1.527912,3.043736
1.521866,3.046677,1.523077,3.044542
1.522364,3.046758,1.523883,3.042930
1.522979,3.046944,1.527912,3.042125
1.523598,3.047116,1.524689,3.045348
1.524218,3.047166,1.531136,3.044542
1.524671,3.047211,1.526300,3.042930
1.525150,3.047332,1.527912,3.042125
1.525593,3.047443,1.528718,3.042125
1.525960,3.047483,1.529524,3.045348
1.526237,3.047514,1.526300,3.046154
1.526736,3.047655,1.531136,3.044542
1.527210,3.047781,1.533553,3.046960
1.527557,3.047720,1.531941,3.046154
1.527854,3.047811,1.531136,3.044542
1.528212,3.047841,1.531136,3.044542
1.528338,3.047826,1.531136,3.049377
1.528293,3.047665,1.528718,3.042930
1.528424,3.047665,1.528718,3.042125
1.528575,3.047645,1.531136,3.046154
1.528696,3.047589,1.531136,3.046154
1.528716,3.047443,1.530330,3.042930
1.528786,3.047483,1.529524,3.046960
1.528892,3.047539,1.529524,3.044542
1.528943,3.047554,1.523077,3.044542
1.528862,3.047473,1.531941,3.043736
1.528948,3.047594,1.529524,3.042930
1.528978,3.047609,1.528718,3.049377
1.529083,3.047564,1.528718,3.046154
1.529179,3.047649,1.531136,3.046960
1.529295,3.047700,1.527912,3.046154
1.529487,3.047745,1.529524,3.046154
1.529547,3.047695,1.529524,3.042125
1.529673,3.047700,1.528718,3.044542
1.529819,3.047831,1.533553,3.045348
1.529970,3.047861,1.531941,3.046154
1.530046,3.047755,1.531941,3.044542
1.530162,3.047851,1.532747,3.042930
1.530323,3.047901,1.532747,3.045348
1.530489,3.047916,1.533553,3.044542
1.530650,3.047906,1.531136,3.042930
1.530867,3.047977,1.533553,3.042930
1.530962,3.048057,1.534359,3.047765
1.531017,3.048067,1.532747,3.047765
1.531033,3.048042,1.532747,3.048571
1.531113,3.048118,1.533553,3.045348
1.531118,3.048163,1.534359,3.050183
1.531158,3.048133,1.531136,3.045348
1.531259,3.048123,1.532747,3.044542
1.531375,3.048178,1.531136,3.046154
1.531486,3.048219,1.530330,3.046154
1.531516,3.048113,1.527912,3.042930
1.531511,3.048148,1.529524,3.046154
1.531602,3.048163,1.530330,3.045348
1.531697,3.048198,1.530330,3.049377
1.531657,3.048027,1.527912,3.042125
1.531657,3.047916,1.525494,3.042125
1.531788,3.047886,1.527912,3.044542
1.531853,3.047750,1.531136,3.046154
1.531823,3.047624,1.524689,3.042125
1.531798,3.047614,1.530330,3.042125
1.531818,3.047584,1.531136,3.045348
1.531904,3.047498,1.531136,3.042930
1.531899,3.047413,1.530330,3.042930
1.531974,3.047423,1.531136,3.044542
1.532090,3.047544,1.531941,3.046154
1.532195,3.047423,1.526300,3.042930
1.532135,3.047367,1.529524,3.042930
1.532185,3.047393,1.531941,3.043736
1.532241,3.047337,1.531941,3.049377
1.532346,3.047262,1.534359,3.042930
1.532427,3.047247,1.533553,3.042125
1.532483,3.047242,1.535165,3.045348
1.532593,3.047277,1.534359,3.049377
1.532593,3.047121,1.533553,3.043736
1.532669,3.047116,1.533553,3.046154
1.532734,3.047070,1.535165,3.045348
1.532795,3.047010,1.534359,3.045348
1.532830,3.046844,1.533553,3.041319
1.532850,3.046813,1.532747,3.044542
1.532840,3.046813,1.535165,3.044542
1.532886,3.046773,1.533553,3.043736
1.532901,3.046657,1.533553,3.042125
1.532991,3.046728,1.531941,3.045348
1.533072,3.046773,1.533553,3.046154
1.533143,3.046783,1.533553,3.042930
1.533178,3.046693,1.533553,3.043736
1.533309,3.046743,1.531941,3.042125
1.533546,3.046874,1.535971,3.044542
1.533616,3.046808,1.535971,3.042125
1.533631,3.046793,1.531136,3.042125
1.533732,3.046808,1.532747,3.042930
1.533833,3.046829,1.533553,3.045348
1.533873,3.046677,1.531136,3.042125
1.533848,3.046647,1.529524,3.042125
1.533793,3.046597,1.531136,3.042125
1.533752,3.046557,1.529524,3.042125
1.533521,3.046325,1.529524,3.040513
1.533375,3.046269,1.527912,3.042125
1.533259,3.046199,1.528718,3.042125
1.533133,3.046068,1.527912,3.040513
1.532785,3.045942,1.519853,3.041319
1.532393,3.045831,1.520659,3.042125
1.531984,3.045756,1.521465,3.041319
1.531662,3.045595,1.524689,3.042125
1.531148,3.045363,1.522271,3.040513
1.530745,3.045272,1.522271,3.042125
1.530282,3.045126,1.519853,3.042125
1.529834,3.044950,1.523077,3.040513
1.529300,3.044809,1.523077,3.041319
1.528867,3.044713,1.522271,3.038901
1.528524,3.044612,1.521465,3.040513
1.528000,3.044421,1.516630,3.037289
1.527537,3.044280,1.517436,3.041319
1.527139,3.044194,1.518242,3.042125
1.526772,3.044084,1.519853,3.039707
1.526243,3.043832,1.515824,3.036484
1.525784,3.043681,1.519048,3.040513
1.525195,3.043535,1.510183,3.039707
1.524621,3.043383,1.514212,3.038901
1.523845,3.043127,1.510183,3.038901
1.523346,3.043046,1.516630,3.040513
1.522883,3.042991,1.517436,3.041319
1.522349,3.042860,1.512601,3.039707
1.521810,3.042693,1.518242,3.036484
1.521150,3.042668,1.510183,3.038095
1.520506,3.042618,1.510989,3.042125
1.519931,3.042517,1.509377,3.038095
1.519302,3.042426,1.507766,3.039707
1.518813,3.042351,1.508571,3.038095
1.518370,3.042311,1.509377,3.039707
1.517781,3.042129,1.510183,3.035678
1.517161,3.042039,1.507766,3.039707
1.516778,3.041983,1.507766,3.038095
1.516426,3.041963,1.508571,3.039707
1.515973,3.041817,1.507766,3.036484
1.515449,3.041752,1.509377,3.036484
1.515041,3.041686,1.508571,3.038901
1.514719,3.041636,1.507766,3.037289
1.514286,3.041505,1.506960,3.034872
1.513812,3.041465,1.506154,3.035678
1.513409,3.041424,1.506960,3.038095
1.513001,3.041379,1.507766,3.040513
1.512513,3.041268,1.507766,3.038095
1.512246,3.041268,1.507766,3.038901
1.511923,3.041283,1.507766,3.040513
1.511546,3.041243,1.507766,3.039707
1.511102,3.041193,1.507766,3.039707
1.510820,3.041208,1.507766,3.036484
1.510528,3.041223,1.508571,3.039707
1.510352,3.041203,1.507766,3.040513
1.510171,3.041253,1.507766,3.040513
1.510045,3.041298,1.510989,3.041319
1.509828,3.041384,1.509377,3.038901
1.509707,3.041359,1.512601,3.040513
1.509566,3.041389,1.509377,3.039707
1.509410,3.041444,1.510989,3.041319
1.509511,3.041475,1.512601,3.038095
1.509476,3.041444,1.510183,3.042125
1.509461,3.041495,1.510989,3.039707
1.509506,3.041550,1.510183,3.041319
1.509526,3.041616,1.516630,3.039707
1.509390,3.041596,1.507766,3.039707
1.509466,3.041742,1.507766,3.040513
1.509496,3.041913,1.510183,3.043736
1.509501,3.041918,1.508571,3.040513
1.509481,3.041938,1.510183,3.040513
1.509582,3.042003,1.511795,3.038095
1.509692,3.042104,1.509377,3.042125
1.509788,3.042124,1.507766,3.038901
1.509717,3.042195,1.509377,3.040513
1.509848,3.042270,1.507766,3.041319
1.510009,3.042321,1.513407,3.041319
1.510110,3.042316,1.509377,3.039707
1.510161,3.042401,1.510183,3.038095
1.510241,3.042462,1.508571,3.038901
1.510327,3.042492,1.507766,3.042125
1.510362,3.042447,1.510989,3.037289
1.510458,3.042447,1.508571,3.039707
1.510503,3.042442,1.509377,3.038095
1.510574,3.042416,1.507766,3.036484
1.510534,3.042386,1.507766,3.038095
1.510513,3.042422,1.507766,3.041319
1.510468,3.042432,1.510183,3.038095
1.510453,3.042411,1.507766,3.040513
1.510347,3.042326,1.508571,3.037289
1.510166,3.042311,1.507766,3.041319
1.510095,3.042356,1.508571,3.041319
1.510025,3.042296,1.506154,3.039707
1.509839,3.042260,1.507766,3.038095
1.509763,3.042245,1.507766,3.040513
1.509758,3.042250,1.507766,3.042125
1.509627,3.042185,1.508571,3.036484
1.509496,3.042150,1.508571,3.034066
1.509415,3.042155,1.507766,3.039707
1.509350,3.042084,1.507766,3.036484
1.509249,3.041938,1.504542,3.036484
1.509159,3.041888,1.507766,3.037289
1.509048,3.041822,1.506154,3.038095
1.508896,3.041767,1.507766,3.040513
1.508675,3.041666,1.502930,3.038095
1.508635,3.041661,1.506960,3.037289
1.508620,3.041636,1.506960,3.038901
1.508524,3.041606,1.510183,3.038901
1.508307,3.041515,1.499707,3.031648
1.508161,3.041500,1.504542,3.034872
1.508056,3.041439,1.503736,3.038095
1.507874,3.041339,1.503736,3.037289
1.507698,3.041273,1.498901,3.036484
1.507522,3.041213,1.503736,3.037289
1.507371,3.041172,1.504542,3.034872
1.507169,3.041041,1.505348,3.031648
1.506978,3.040991,1.498901,3.034066
1.506771,3.040921,1.502125,3.033260
1.506635,3.040830,1.503736,3.036484
1.506358,3.040628,1.502125,3.030843
1.506121,3.040533,1.497289,3.037289
1.505920,3.040402,1.499707,3.034066
1.505728,3.040321,1.505348,3.035678
1.505421,3.040110,1.498095,3.029231
1.505124,3.040009,1.499707,3.031648
1.504907,3.039863,1.498901,3.034066
1.504656,3.039712,1.498901,3.034872
1.504273,3.039530,1.494872,3.033260
1.503900,3.039420,1.494066,3.034066
1.503653,3.039319,1.498901,3.037289
1.503372,3.039133,1.495678,3.032454
1.503064,3.039012,1.499707,3.036484
1.502767,3.038926,1.498901,3.034066
1.502540,3.038845,1.497289,3.036484
1.502238,3.038654,1.494872,3.033260
1.501956,3.038558,1.496484,3.030843
1.501745,3.038432,1.496484,3.032454
1.501382,3.038276,1.499707,3.034872
1.500999,3.037999,1.495678,3.031648
1.500641,3.037813,1.497289,3.033260
1.500400,3.037692,1.494872,3.033260
1.500138,3.037556,1.494872,3.034066
1.499821,3.037314,1.494066,3.030843
1.499564,3.037224,1.497289,3.029231
1.499267,3.037103,1.496484,3.033260
1.499085,3.036982,1.494066,3.030843
1.498743,3.036821,1.492454,3.031648
1.498496,3.036755,1.494872,3.031648
1.498304,3.036670,1.494872,3.034066
1.498143,3.036569,1.496484,3.031648
1.497876,3.036473,1.494872,3.031648
1.497801,3.036408,1.497289,3.034872
1.497881,3.036443,1.499707,3.034872
1.497876,3.036393,1.497289,3.029231
1.497675,3.036322,1.497289,3.032454
1.497650,3.036282,1.495678,3.032454
1.497639,3.036292,1.497289,3.037289
1.497509,3.036206,1.494872,3.030037
1.497443,3.036176,1.496484,3.034066
1.497428,3.036176,1.494872,3.031648
1.497579,3.036116,1.494872,3.031648
1.497604,3.036065,1.495678,3.031648
1.497720,3.036070,1.498901,3.035678
1.497801,3.036111,1.499707,3.033260
1.497947,3.036065,1.502930,3.034872
1.497942,3.036045,1.499707,3.030037
1.497922,3.036116,1.499707,3.031648
1.497891,3.036136,1.496484,3.036484
1.497831,3.036116,1.497289,3.030843
1.497790,3.036131,1.495678,3.029231
1.497796,3.036231,1.498095,3.033260
1.497765,3.036317,1.495678,3.037289
1.497720,3.036302,1.494066,3.034066
1.497629,3.036317,1.495678,3.034872
1.497604,3.036367,1.494066,3.031648
1.497614,3.036443,1.496484,3.033260
1.497594,3.036383,1.490842,3.030843
1.497524,3.036332,1.493260,3.029231
1.497463,3.036322,1.493260,3.034066
1.497458,3.036362,1.494066,3.030843
1.497307,3.036277,1.493260,3.031648
1.497232,3.036236,1.491648,3.031648
1.497156,3.036216,1.490842,3.032454
1.497065,3.036216,1.494872,3.034872
1.496703,3.036015,1.492454,3.029231
1.496496,3.035959,1.486007,3.030843
1.496325,3.035975,1.490842,3.031648
1.496129,3.035934,1.487619,3.030037
1.495816,3.035758,1.489231,3.031648
1.495590,3.035773,1.487619,3.029231
1.495338,3.035753,1.492454,3.034066
1.495056,3.035632,1.489231,3.029231
1.494648,3.035602,1.485201,3.030037
1.494260,3.035521,1.483590,3.030843
1.493797,3.035531,1.490037,3.031648
1.493308,3.035315,1.484396,3.029231
1.492784,3.035209,1.486007,3.030037
1.492346,3.035093,1.481978,3.029231
1.492019,3.035038,1.487619,3.036484
1.491601,3.034781,1.481978,3.029231
1.491238,3.034635,1.481978,3.029231
1.490815,3.034509,1.482784,3.029231
1.490467,3.034398,1.482784,3.029231
1.490014,3.034192,1.481978,3.029231
1.489581,3.034096,1.482784,3.030037
1.489173,3.034030,1.481978,3.030037
1.488720,3.033869,1.480366,3.032454
1.488221,3.033633,1.480366,3.029231
1.487813,3.033572,1.479560,3.029231
1.487340,3.033532,1.481978,3.031648
1.486937,3.033451,1.481172,3.029231
1.486468,3.033310,1.479560,3.030843
1.486101,3.033220,1.477949,3.029231
1.485728,3.033189,1.481978,3.029231
1.485385,3.033058,1.480366,3.029231
1.485103,3.033023,1.482784,3.030037
1.484816,3.032998,1.480366,3.030843
1.484414,3.032953,1.481978,3.036484
1.484177,3.032817,1.481978,3.029231
1.483955,3.032827,1.483590,3.029231
1.483930,3.032938,1.485201,3.031648
1.483824,3.032958,1.486007,3.033260
1.483638,3.032927,1.485201,3.030037
1.483502,3.032958,1.489231,3.031648
1.483432,3.032973,1.482784,3.033260
1.483497,3.033003,1.494066,3.032454
1.483532,3.033003,1.483590,3.034066
1.483729,3.033099,1.490037,3.032454
1.483920,3.033280,1.486813,3.033260
1.484137,3.033406,1.494872,3.030843
1.484288,3.033481,1.487619,3.036484
1.484615,3.033693,1.491648,3.033260
1.484948,3.033920,1.490842,3.034066
1.485225,3.034020,1.490842,3.032454
1.485451,3.034166,1.492454,3.033260
1.485799,3.034323,1.492454,3.031648
1.486171,3.034534,1.493260,3.038095
1.486383,3.034519,1.489231,3.029231
1.486665,3.034690,1.489231,3.031648
1.486897,3.034836,1.490842,3.030037
1.487108,3.034897,1.489231,3.031648
1.487295,3.034887,1.485201,3.031648
1.487456,3.034937,1.483590,3.032454
1.487602,3.034997,1.483590,3.030037
1.487723,3.035103,1.486813,3.030037
1.487773,3.035078,1.484396,3.030843
1.487848,3.035169,1.486007,3.030037
1.487864,3.035254,1.482784,3.031648
1.487929,3.035280,1.486007,3.030843
1.487949,3.035330,1.481978,3.029231
1.488010,3.035380,1.481978,3.029231
1.488040,3.035390,1.481978,3.033260
1.487884,3.035285,1.482784,3.029231
1.487874,3.035239,1.484396,3.031648
1.488010,3.035259,1.483590,3.033260
1.488115,3.035345,1.489231,3.036484
1.488120,3.035295,1.485201,3.030037
1.487929,3.035280,1.482784,3.030037
1.487879,3.035249,1.482784,3.029231
1.487677,3.035179,1.490842,3.034872
1.487415,3.034992,1.481978,3.030037
1.487158,3.034922,1.481978,3.030037
1.486967,3.034816,1.484396,3.033260
1.486665,3.034720,1.484396,3.032454
1.486282,3.034559,1.481978,3.030843
1.486000,3.034524,1.482784,3.032454
1.485708,3.034489,1.481978,3.031648
1.485446,3.034378,1.481978,3.029231
1.485103,3.034257,1.481978,3.029231
1.484927,3.034267,1.482784,3.030843
1.484715,3.034267,1.482784,3.033260
1.484549,3.034202,1.480366,3.031648
1.484332,3.034177,1.481978,3.033260
1.484171,3.034222,1.481978,3.031648
1.484091,3.034252,1.482784,3.030843
1.483995,3.034171,1.481978,3.029231
1.483905,3.034136,1.481978,3.029231
1.483834,3.034156,1.481978,3.030037
1.483764,3.034192,1.481978,3.029231
1.483613,3.034030,1.480366,3.029231
1.483517,3.034015,1.481172,3.029231
1.483492,3.033975,1.481172,3.030037
1.483426,3.033894,1.481978,3.030037
1.483255,3.033784,1.481978,3.029231
1.483205,3.033774,1.481172,3.029231
1.483064,3.033794,1.477143,3.029231
1.482832,3.033733,1.481172,3.029231
1.482595,3.033622,1.479560,3.029231
1.482455,3.033582,1.481978,3.029231
1.482364,3.033582,1.478755,3.032454
1.482203,3.033481,1.481172,3.029231
1.481951,3.033517,1.477949,3.030843
1.481860,3.033476,1.480366,3.029231
1.481754,3.033441,1.481978,3.033260
1.481608,3.033295,1.480366,3.029231
1.481553,3.033300,1.480366,3.029231
1.481432,3.033245,1.481172,3.030843
1.481362,3.033214,1.481978,3.034872
1.481256,3.033038,1.477143,3.029231
1.481090,3.033048,1.477949,3.030843
1.481040,3.032993,1.481978,3.029231
1.480954,3.032892,1.479560,3.029231
1.480742,3.032701,1.477949,3.029231
1.480561,3.032640,1.481978,3.029231
1.480455,3.032630,1.477949,3.029231
1.480344,3.032575,1.481978,3.029231
1.480138,3.032464,1.473919,3.029231
1.479997,3.032474,1.477143,3.030843
1.479901,3.032474,1.473919,3.033260
1.479811,3.032383,1.473114,3.029231
1.479679,3.032257,1.474725,3.030037
1.479574,3.032303,1.477143,3.030037
1.479488,3.032313,1.478755,3.030037
1.479281,3.032217,1.474725,3.029231
1.479070,3.032273,1.473919,3.029231
1.478934,3.032283,1.474725,3.030037
1.478798,3.032283,1.477949,3.033260
1.478541,3.032152,1.473114,3.029231
1.478360,3.032076,1.477949,3.027619
1.478193,3.032026,1.471502,3.028425
1.477982,3.031965,1.477143,3.029231
1.477710,3.031834,1.470696,3.028425
1.477418,3.031804,1.473114,3.030037
1.477297,3.031734,1.473919,3.029231
1.477055,3.031714,1.477949,3.029231
1.476768,3.031608,1.469084,3.029231
1.476586,3.031638,1.469890,3.029231
1.476319,3.031603,1.470696,3.030843
1.476113,3.031583,1.469890,3.029231
1.475821,3.031492,1.471502,3.028425
1.475624,3.031542,1.469084,3.029231
1.475433,3.031537,1.472308,3.030843
1.475161,3.031437,1.473919,3.027619
1.474889,3.031426,1.471502,3.029231
1.474743,3.031437,1.466667,3.029231
1.474562,3.031432,1.469084,3.031648
1.474265,3.031311,1.469890,3.026813
1.474008,3.031270,1.469890,3.029231
1.473821,3.031225,1.469084,3.027619
1.473655,3.031185,1.471502,3.028425
1.473287,3.031069,1.466667,3.027619
1.473045,3.031059,1.467473,3.029231
1.472758,3.031003,1.465055,3.027619
1.472497,3.030918,1.469890,3.028425
1.472149,3.030797,1.467473,3.029231
1.471872,3.030767,1.465055,3.029231
1.471676,3.030721,1.467473,3.029231
1.471439,3.030641,1.466667,3.029231
1.471126,3.030565,1.468278,3.028425
1.470965,3.030535,1.466667,3.028425
1.470834,3.030530,1.468278,3.029231
1.470613,3.030460,1.465861,3.026813
1.470426,3.030439,1.463443,3.028425
1.470270,3.030439,1.469084,3.026813
1.470134,3.030389,1.468278,3.029231
1.469938,3.030293,1.464249,3.026007
1.469766,3.030223,1.464249,3.026813
1.469610,3.030213,1.467473,3.026813
1.469409,3.030167,1.466667,3.029231
1.469197,3.030057,1.464249,3.027619
1.469036,3.030041,1.468278,3.027619
1.468915,3.030001,1.468278,3.029231
1.468855,3.029926,1.469890,3.028425
1.468663,3.029800,1.461026,3.027619
1.468482,3.029800,1.468278,3.028425
1.468422,3.029840,1.466667,3.029231
1.468341,3.029835,1.471502,3.029231
1.468326,3.029845,1.470696,3.029231
1.468467,3.029916,1.468278,3.028425
1.468648,3.030036,1.473919,3.029231
1.468819,3.030082,1.476337,3.029231
1.469001,3.030177,1.473114,3.029231
1.469359,3.030334,1.477949,3.030843
1.469711,3.030535,1.481978,3.031648
1.470104,3.030626,1.482784,3.029231
1.470537,3.030837,1.481978,3.029231
1.471021,3.030983,1.481172,3.031648
1.471625,3.031210,1.483590,3.031648
1.472048,3.031265,1.481978,3.031648
1.472537,3.031432,1.486007,3.032454
1.473106,3.031658,1.484396,3.031648
1.473716,3.031895,1.482784,3.031648
1.474189,3.032127,1.484396,3.030037
1.474854,3.032383,1.487619,3.036484
1.475499,3.032726,1.486007,3.036484
1.476184,3.032948,1.490037,3.034872
1.476854,3.033204,1.486007,3.036484
1.477589,3.033522,1.494872,3.031648
1.478350,3.033884,1.493260,3.038095
1.479140,3.034116,1.490037,3.033260
1.479841,3.034413,1.489231,3.036484
1.480631,3.034741,1.490842,3.032454
1.481518,3.035078,1.492454,3.038095
1.482303,3.035285,1.490842,3.033260
1.482988,3.035526,1.494066,3.037289
1.483840,3.035803,1.492454,3.036484
1.484721,3.036090,1.494066,3.034872
1.485416,3.036257,1.490842,3.034066
1.486182,3.036569,1.490842,3.031648
1.486902,3.036785,1.489231,3.037289
1.487522,3.036962,1.492454,3.038095
1.488086,3.037093,1.492454,3.033260
1.488705,3.037345,1.492454,3.033260
1.489269,3.037566,1.494872,3.036484
1.489763,3.037687,1.497289,3.036484
1.490176,3.037752,1.493260,3.034066
1.490599,3.037964,1.494872,3.035678
1.490987,3.038115,1.494066,3.038095
1.491410,3.038256,1.497289,3.038095
1.491742,3.038382,1.495678,3.036484
1.492110,3.038548,1.494872,3.036484
1.492563,3.038730,1.496484,3.039707
1.492896,3.038750,1.496484,3.034872
1.493163,3.038800,1.494872,3.037289
1.493525,3.038866,1.498095,3.038095
1.493808,3.038981,1.498901,3.039707
1.494014,3.038911,1.497289,3.034872
1.494241,3.039002,1.494066,3.040513
1.494483,3.039052,1.495678,3.035678
1.494775,3.039042,1.497289,3.039707
1.494896,3.039022,1.495678,3.034872
1.494976,3.039082,1.496484,3.036484
1.495157,3.039112,1.495678,3.034872
1.495233,3.039092,1.499707,3.038095
1.495208,3.039027,1.494066,3.034066
1.495369,3.039117,1.494872,3.038095
1.495409,3.039203,1.494066,3.038095
1.495455,3.039238,1.494872,3.038095
1.495439,3.039258,1.495678,3.036484
1.495520,3.039319,1.494872,3.038901
1.495550,3.039324,1.491648,3.039707
1.495555,3.039263,1.492454,3.033260
1.495575,3.039274,1.491648,3.034066
1.495596,3.039284,1.491648,3.034872
1.495580,3.039319,1.494872,3.037289
1.495505,3.039198,1.494066,3.034872
1.495495,3.039178,1.493260,3.032454
1.495424,3.039208,1.494872,3.034872
1.495434,3.039188,1.494872,3.031648
1.495369,3.039087,1.492454,3.036484
1.495278,3.039087,1.494066,3.038095
1.495207,3.039057,1.490842,3.036484
1.495172,3.039032,1.492454,3.038095
1.494960,3.038941,1.490842,3.032454
1.494854,3.038981,1.490037,3.034872
1.494719,3.039072,1.492454,3.034872
1.494573,3.039002,1.492454,3.036484
1.494371,3.038946,1.490842,3.038095
1.494265,3.038941,1.493260,3.038095
1.494175,3.038951,1.494066,3.037289
1.494054,3.038926,1.493260,3.034066
1.493802,3.038926,1.492454,3.032454
1.493686,3.038906,1.489231,3.037289
1.493661,3.038881,1.490842,3.036484
1.493560,3.038795,1.490037,3.034066
1.493525,3.038845,1.491648,3.034066
1.493484,3.038861,1.492454,3.034872
1.493338,3.038866,1.495678,3.033260
1.493238,3.038740,1.486813,3.034066
1.493157,3.038684,1.494066,3.033260
1.493046,3.038644,1.492454,3.033260
1.492915,3.038629,1.490037,3.036484
1.492815,3.038579,1.489231,3.035678
1.492759,3.038629,1.493260,3.034872
1.492679,3.038735,1.486813,3.038095
1.492573,3.038735,1.494872,3.034872
1.492381,3.038644,1.484396,3.031648
1.492291,3.038634,1.486007,3.037289
1.492190,3.038704,1.492454,3.036484
1.492120,3.038644,1.486813,3.034872
1.491913,3.038639,1.490037,3.037289
1.491772,3.038634,1.489231,3.036484
1.491697,3.038619,1.490037,3.036484
1.491561,3.038513,1.491648,3.031648
1.491465,3.038503,1.489231,3.033260
1.491369,3.038488,1.484396,3.033260
1.491344,3.038422,1.492454,3.036484
1.491138,3.038251,1.486007,3.033260
1.490966,3.038281,1.487619,3.036484
1.490845,3.038216,1.487619,3.031648
1.490699,3.038191,1.486007,3.034066
1.490417,3.038070,1.485201,3.030843
1.490170,3.038004,1.489231,3.034872
1.490034,3.037999,1.483590,3.034872
1.489858,3.037944,1.489231,3.033260
1.489611,3.037828,1.483590,3.031648
1.489400,3.037833,1.490842,3.034872
1.489173,3.037818,1.486007,3.034872
1.488941,3.037768,1.482784,3.031648
1.488649,3.037672,1.481978,3.032454
1.488458,3.037672,1.486813,3.033260
1.488307,3.037682,1.483590,3.031648
1.488070,3.037556,1.483590,3.029231
1.487909,3.037541,1.483590,3.030037
1.487743,3.037440,1.481978,3.031648
1.487526,3.037385,1.486007,3.036484
1.487269,3.037193,1.482784,3.030843
1.487037,3.037113,1.483590,3.034066
1.486851,3.037128,1.482784,3.034066
1.486690,3.037088,1.486007,3.031648
1.486423,3.036952,1.481978,3.030843
1.486257,3.036901,1.486007,3.033260
1.486096,3.036831,1.485201,3.033260
1.485960,3.036770,1.483590,3.031648
1.485693,3.036670,1.482784,3.030843
1.485481,3.036700,1.481978,3.031648
1.485260,3.036715,1.481978,3.034066
1.485068,3.036660,1.481978,3.030843
1.484766,3.036644,1.481978,3.031648
1.484696,3.036649,1.482784,3.033260
1.484615,3.036629,1.481978,3.034872
1.484419,3.036564,1.481978,3.030037
1.484273,3.036503,1.481172,3.031648
1.484212,3.036488,1.481172,3.031648
1.484182,3.036574,1.483590,3.034066
1.484016,3.036413,1.486007,3.030037
1.483905,3.036347,1.481978,3.030037
1.483764,3.036393,1.480366,3.030843
1.483653,3.036337,1.482784,3.034066
1.483527,3.036161,1.480366,3.031648
1.483427,3.036110,1.482784,3.032454
1.483386,3.036116,1.485201,3.032454
1.483442,3.036080,1.480366,3.034066
1.483260,3.036045,1.482784,3.037289
1.483290,3.036151,1.482784,3.033260
1.483331,3.036201,1.485201,3.038095
1.483316,3.036267,1.481978,3.036484
1.483396,3.036393,1.481978,3.034872
1.483603,3.036519,1.490842,3.037289
1.483910,3.036685,1.490037,3.039707
1.484243,3.036720,1.490037,3.033260
1.484514,3.036886,1.490842,3.038095
1.484917,3.037047,1.494872,3.037289
1.485356,3.037239,1.498901,3.042125
1.485829,3.037390,1.494872,3.040513
1.486348,3.037576,1.500513,3.038901
1.486977,3.037828,1.503736,3.040513
1.487682,3.038024,1.507766,3.040513
1.488418,3.038140,1.505348,3.041319
1.489259,3.038468,1.511795,3.042125
1.490110,3.038689,1.510183,3.042125
1.491087,3.038931,1.511795,3.042930
1.491898,3.039153,1.507766,3.042930
1.492865,3.039515,1.509377,3.042125
1.493812,3.039893,1.515824,3.046960
1.494874,3.040185,1.515824,3.042930
1.495872,3.040387,1.515018,3.043736
1.497015,3.040795,1.512601,3.042930
1.498128,3.041228,1.519048,3.043736
1.499302,3.041545,1.518242,3.043736
1.500405,3.041933,1.515018,3.044542
1.501613,3.042306,1.521465,3.042125
1.502873,3.042698,1.522271,3.047765
1.504076,3.042945,1.519853,3.042125
1.505170,3.043363,1.519853,3.042125
1.506398,3.043665,1.524689,3.042930
1.507647,3.043988,1.525494,3.046154
1.508760,3.044179,1.523077,3.042125
1.509929,3.044446,1.521465,3.046154
1.511047,3.044638,1.525494,3.042930
1.512165,3.044915,1.520659,3.044542
1.513112,3.045061,1.524689,3.043736
1.514074,3.045292,1.516630,3.042930
1.515067,3.045549,1.528718,3.043736
1.515938,3.045741,1.523883,3.044542
1.516754,3.045861,1.521465,3.043736
1.517686,3.046073,1.523883,3.043736
1.518552,3.046365,1.528718,3.047765
1.519307,3.046506,1.527912,3.044542
1.520038,3.046677,1.529524,3.042930
1.520738,3.046828,1.530330,3.046154
1.521433,3.046959,1.525494,3.046960
1.522088,3.047060,1.528718,3.042125
1.522622,3.047186,1.531136,3.042930
1.523266,3.047257,1.533553,3.046960
1.523836,3.047352,1.533553,3.048571
1.524354,3.047337,1.531941,3.044542
1.524813,3.047378,1.530330,3.042125
1.525251,3.047448,1.528718,3.046154
1.525664,3.047483,1.533553,3.042930
1.526001,3.047433,1.525494,3.042125
1.526384,3.047463,1.531941,3.042125
1.526696,3.047473,1.528718,3.042930
1.526993,3.047478,1.531941,3.046960
1.527134,3.047418,1.527912,3.043736
1.527326,3.047483,1.527912,3.043736
1.527517,3.047473,1.527912,3.047765
1.527638,3.047478,1.528718,3.044542
1.527718,3.047453,1.523077,3.042930
1.527915,3.047463,1.524689,3.042930
1.528152,3.047514,1.526300,3.044542
1.528167,3.047438,1.526300,3.042930
1.528202,3.047393,1.523883,3.043736
1.528167,3.047423,1.528718,3.043736
1.528207,3.047398,1.523077,3.042930
1.528152,3.047247,1.523077,3.041319
1.528137,3.047181,1.521465,3.042125
1.528076,3.047161,1.524689,3.042125
1.527970,3.047035,1.523077,3.045348
1.527744,3.046808,1.523883,3.042125
1.527653,3.046667,1.522271,3.039707
1.527447,3.046536,1.522271,3.042930
1.527280,3.046441,1.522271,3.042125
1.527003,3.046249,1.521465,3.042125
1.526872,3.046164,1.520659,3.041319
1.526626,3.046174,1.522271,3.044542
1.526374,3.046068,1.526300,3.042125
1.526112,3.045917,1.521465,3.041319
1.525905,3.045862,1.521465,3.042125
1.525694,3.045821,1.520659,3.043736
1.525482,3.045695,1.523077,3.042125
1.525210,3.045625,1.521465,3.042125
1.525084,3.045554,1.522271,3.042125
1.524913,3.045499,1.523077,3.043736
1.524747,3.045333,1.520659,3.040513
1.524561,3.045227,1.523077,3.042125
1.524480,3.045166,1.522271,3.042125
1.524430,3.045111,1.522271,3.042125
1.524249,3.044940,1.519853,3.041319
1.524244,3.044864,1.522271,3.040513
1.524178,3.044779,1.524689,3.041319
1.524047,3.044703,1.522271,3.041319
1.523795,3.044572,1.524689,3.042125
1.523750,3.044537,1.524689,3.042125
1.523704,3.044507,1.523883,3.043736
1.523795,3.044386,1.524689,3.042125
1.523724,3.044320,1.519853,3.039707
1.523744,3.044315,1.523883,3.042125
1.523750,3.044305,1.521465,3.042125
1.523770,3.044204,1.523077,3.039707
1.523684,3.044184,1.518242,3.041319
1.523770,3.044144,1.521465,3.042125
1.523734,3.044179,1.524689,3.044542
1.523745,3.044089,1.524689,3.038095
1.523745,3.044068,1.523077,3.042125
1.523715,3.044028,1.519853,3.041319
1.523609,3.043998,1.523077,3.038095
1.523533,3.043791,1.518242,3.040513
1.523513,3.043751,1.520659,3.038095
1.523438,3.043676,1.518242,3.041319
1.523433,3.043585,1.520659,3.042125
1.523287,3.043439,1.519048,3.041319
1.523151,3.043383,1.517436,3.036484
1.523065,3.043333,1.520659,3.040513
1.522909,3.043248,1.519048,3.040513
1.522727,3.043132,1.518242,3.037289
1.522601,3.043122,1.522271,3.041319
1.522445,3.043132,1.522271,3.042125
1.522314,3.043026,1.516630,3.040513
1.522118,3.042965,1.518242,3.041319
1.522017,3.042930,1.519048,3.040513
1.521921,3.042895,1.519048,3.040513
1.521725,3.042804,1.515824,3.038095
1.521579,3.042769,1.515824,3.038901
1.521483,3.042729,1.518242,3.041319
1.521428,3.042719,1.516630,3.038901
1.521126,3.042598,1.513407,3.036484
1.520879,3.042583,1.517436,3.037289
1.520673,3.042542,1.516630,3.038901
1.520456,3.042502,1.518242,3.038095
1.520235,3.042416,1.515018,3.038901
1.520033,3.042386,1.517436,3.041319
1.519907,3.042346,1.511795,3.040513
1.519645,3.042301,1.515018,3.038095
1.519358,3.042220,1.512601,3.038095
1.519202,3.042230,1.515824,3.039707
1.518965,3.042215,1.516630,3.042125
1.518809,3.042170,1.515018,3.038901
1.518537,3.042124,1.515018,3.039707
1.518346,3.042129,1.512601,3.039707
1.518180,3.042124,1.515018,3.040513
1.518054,3.042064,1.515018,3.039707
1.517822,3.042034,1.515018,3.039707
1.517671,3.042054,1.515018,3.041319
1.517610,3.042049,1.517436,3.042125
1.517414,3.041948,1.512601,3.038095
1.517263,3.041888,1.512601,3.039707
1.517021,3.041847,1.511795,3.038095
1.516910,3.041772,1.512601,3.036484
1.516628,3.041676,1.507766,3.034066
1.516442,3.041686,1.513407,3.038901
1.516185,3.041641,1.510183,3.036484
1.515999,3.041626,1.511795,3.038095
1.515631,3.041525,1.508571,3.039707
1.515500,3.041520,1.514212,3.038095
1.515248,3.041510,1.508571,3.039707
1.514961,3.041465,1.510183,3.036484
1.514609,3.041394,1.508571,3.034066
1.514422,3.041364,1.510183,3.035678
1.514226,3.041334,1.508571,3.039707
1.513974,3.041268,1.511795,3.035678
1.513682,3.041208,1.506960,3.036484
1.513425,3.041177,1.508571,3.037289
1.513133,3.041188,1.507766,3.039707
1.512796,3.041092,1.507766,3.037289
1.512554,3.041036,1.507766,3.036484
1.512362,3.040966,1.507766,3.034872
1.512116,3.040916,1.506960,3.036484
1.511818,3.040769,1.505348,3.033260
1.511486,3.040694,1.504542,3.037289
1.511269,3.040603,1.502930,3.036484
1.511017,3.040528,1.502125,3.034872
1.510680,3.040382,1.505348,3.034872
1.510398,3.040367,1.504542,3.036484
1.510106,3.040351,1.507766,3.034066
1.509829,3.040286,1.503736,3.035678
1.509385,3.040195,1.503736,3.034066
1.509118,3.040160,1.504542,3.038095
1.508857,3.040150,1.506960,3.038901
1.508569,3.040084,1.502125,3.038095
1.508242,3.040069,1.499707,3.037289
1.508046,3.040029,1.502930,3.038095
1.507738,3.039964,1.505348,3.037289
1.507401,3.039812,1.497289,3.031648
1.507063,3.039702,1.504542,3.037289
1.506726,3.039656,1.498901,3.036484
1.506474,3.039576,1.502125,3.038095
1.506111,3.039405,1.502930,3.031648
1.505874,3.039309,1.502125,3.033260
1.505637,3.039269,1.495678,3.037289
1.505522,3.039218,1.504542,3.038901
1.505249,3.039112,1.506154,3.033260
1.505098,3.039117,1.505348,3.033260
1.505053,3.039138,1.506960,3.039707
1.505058,3.039128,1.506154,3.038095
1.505023,3.039057,1.502930,3.038095
1.505028,3.039133,1.507766,3.041319
1.505063,3.039223,1.509377,3.042125
1.505184,3.039299,1.510989,3.039707
1.505280,3.039364,1.510183,3.039707
1.505496,3.039470,1.513407,3.039707
1.505914,3.039636,1.512601,3.042125
1.506317,3.039757,1.519853,3.041319
1.506786,3.039918,1.519048,3.042125
1.507345,3.040130,1.520659,3.042125
1.508040,3.040407,1.525494,3.045348
1.508740,3.040508,1.529524,3.041319
1.509490,3.040759,1.530330,3.042125
1.510387,3.040991,1.531941,3.044542
1.511258,3.041303,1.533553,3.042930
1.512084,3.041520,1.532747,3.042125
1.513062,3.041837,1.531941,3.047765
1.514029,3.042170,1.534359,3.046154
1.515026,3.042472,1.534359,3.045348
1.516028,3.042759,1.533553,3.042930
1.517157,3.043152,1.534359,3.043736
1.518239,3.043575,1.537582,3.047765
1.519408,3.043887,1.534359,3.042125
1.520400,3.044189,1.539194,3.045348
1.521629,3.044587,1.544029,3.046154
1.522863,3.045015,1.540000,3.050183
1.524027,3.045257,1.540806,3.045348
1.525089,3.045605,1.538388,3.044542
1.526323,3.045972,1.543224,3.046960
1.527578,3.046300,1.543224,3.050989
1.528716,3.046501,1.541612,3.047765
1.529869,3.046763,1.541612,3.044542
1.531043,3.047080,1.542418,3.046154
1.532241,3.047418,1.546447,3.046960
1.533349,3.047589,1.538388,3.043736
1.534427,3.047866,1.548059,3.046960
1.535525,3.048118,1.547253,3.048571
1.536653,3.048390,1.549670,3.047765
1.537525,3.048576,1.548864,3.046960
1.538421,3.048818,1.548864,3.050183
1.539323,3.049095,1.552088,3.049377
1.540199,3.049286,1.547253,3.047765
1.540824,3.049342,1.547253,3.046154
1.541529,3.049568,1.551282,3.046154
1.542244,3.049699,1.552088,3.050183
1.542858,3.049835,1.550476,3.050183
1.543438,3.049966,1.548864,3.045348
1.544103,3.050117,1.554505,3.049377
1.544808,3.050253,1.554505,3.050989
1.545322,3.050223,1.548059,3.047765
1.545855,3.050344,1.551282,3.050989
1.546389,3.050404,1.550476,3.048571
1.546923,3.050475,1.548864,3.050989
1.547452,3.050415,1.551282,3.049377
1.547996,3.050480,1.553700,3.052601
1.548515,3.050571,1.554505,3.050183
1.548943,3.050631,1.555311,3.046960
1.549205,3.050556,1.548864,3.042930
1.549638,3.050661,1.546447,3.046960
1.549935,3.050737,1.551282,3.047765
1.550137,3.050702,1.548864,3.046960
1.550267,3.050687,1.548059,3.043736
1.550429,3.050707,1.546447,3.044542
1.550554,3.050747,1.547253,3.049377
1.550615,3.050692,1.546447,3.046960
1.550640,3.050591,1.546447,3.046154
1.550741,3.050611,1.546447,3.043736
1.550786,3.050576,1.547253,3.049377
1.550731,3.050430,1.547253,3.042125
1.550666,3.050389,1.548059,3.044542
1.550625,3.050299,1.546447,3.043736
1.550585,3.050198,1.547253,3.042930
1.550409,3.049981,1.544029,3.042125
1.550242,3.049886,1.546447,3.044542
1.550152,3.049770,1.545641,3.043736
1.549920,3.049659,1.544029,3.046154
1.549673,3.049458,1.541612,3.042930
1.549427,3.049372,1.545641,3.042930
1.549185,3.049251,1.545641,3.043736
1.548913,3.049115,1.542418,3.043736
1.548479,3.048929,1.544029,3.042125
1.548283,3.048878,1.544835,3.044542
1.548041,3.048763,1.542418,3.046154
1.547704,3.048647,1.543224,3.042125
1.547417,3.048526,1.542418,3.049377
1.547150,3.048430,1.538388,3.046154
1.546913,3.048365,1.543224,3.046154
1.546631,3.048173,1.544029,3.042125
1.546359,3.048002,1.541612,3.045348
1.546173,3.047906,1.543224,3.043736
1.545911,3.047806,1.544029,3.049377
1.545664,3.047589,1.543224,3.042125
1.545523,3.047498,1.544029,3.044542
1.545352,3.047403,1.543224,3.042125
1.545286,3.047317,1.542418,3.042125
1.544989,3.047171,1.540806,3.042125
1.544843,3.047131,1.543224,3.042125
1.544657,3.047095,1.540806,3.042125
1.544521,3.047000,1.543224,3.042125
1.544198,3.046874,1.539194,3.042930
1.544012,3.046818,1.538388,3.042125
1.543715,3.046783,1.539194,3.043736
1.543503,3.046677,1.533553,3.043736
1.543176,3.046622,1.537582,3.042125
1.542924,3.046587,1.537582,3.043736
1.542657,3.046567,1.534359,3.042930
1.542365,3.046496,1.535971,3.042125
1.542148,3.046456,1.532747,3.042125
1.541821,3.046441,1.534359,3.043736
1.541700,3.046370,1.535971,3.042125
1.541368,3.046189,1.533553,3.038901
1.541071,3.046108,1.534359,3.042125
1.540804,3.046003,1.535165,3.042930
1.540466,3.045892,1.535971,3.044542
1.540129,3.045725,1.533553,3.041319
1.539917,3.045660,1.533553,3.042125
1.539630,3.045549,1.533553,3.040513
1.539348,3.045499,1.535165,3.040513
1.538905,3.045318,1.532747,3.040513
1.538532,3.045262,1.533553,3.041319
1.538190,3.045277,1.531941,3.043736
1.537862,3.045202,1.534359,3.042125
1.537480,3.045081,1.533553,3.042125
1.537213,3.045010,1.533553,3.042125
1.536890,3.044955,1.533553,3.043736
1.536583,3.044804,1.531136,3.040513
1.536130,3.044733,1.531941,3.040513
1.535878,3.044653,1.529524,3.038901
1.535576,3.044592,1.528718,3.042125
1.535279,3.044401,1.529524,3.040513
1.534891,3.044315,1.530330,3.042125
1.534735,3.044270,1.531136,3.040513
1.534453,3.044255,1.534359,3.040513
1.534100,3.044053,1.525494,3.037289
1.533733,3.044038,1.524689,3.042125
1.533516,3.043943,1.525494,3.040513
1.533284,3.043862,1.528718,3.042125
1.532856,3.043691,1.523077,3.038095
1.532534,3.043645,1.526300,3.039707
1.532231,3.043555,1.528718,3.039707
1.532005,3.043489,1.525494,3.042125
1.531582,3.043384,1.524689,3.038095
1.531345,3.043368,1.527912,3.038095
1.530997,3.043323,1.525494,3.043736
1.530695,3.043263,1.523077,3.040513
1.530322,3.043207,1.522271,3.038095
1.530035,3.043172,1.522271,3.040513
1.529678,3.043127,1.523883,3.041319
1.529305,3.043001,1.519048,3.039707
1.528988,3.042910,1.524689,3.039707
1.528665,3.042890,1.525494,3.038095
1.528393,3.042860,1.524689,3.040513
1.528036,3.042704,1.520659,3.039707
1.527743,3.042638,1.520659,3.041319
1.527436,3.042608,1.520659,3.040513
1.527089,3.042552,1.522271,3.042125
1.526666,3.042452,1.519853,3.037289
1.526283,3.042396,1.520659,3.038095
1.525966,3.042401,1.521465,3.041319
1.525588,3.042356,1.519048,3.039707
1.525185,3.042281,1.518242,3.038095
1.524787,3.042255,1.518242,3.038095
1.524475,3.042235,1.518242,3.042125
1.524097,3.042155,1.516630,3.037289
1.523694,3.042074,1.515824,3.037289
1.523417,3.042074,1.517436,3.038095
1.523191,3.042024,1.521465,3.039707
1.522838,3.041973,1.516630,3.038095
1.522506,3.041933,1.515824,3.038095
1.522259,3.041903,1.516630,3.039707
1.521977,3.041878,1.516630,3.042125
1.521599,3.041762,1.513407,3.034872
1.521312,3.041711,1.519853,3.038095
1.521020,3.041671,1.515018,3.037289
1.520733,3.041580,1.519853,3.039707
1.520365,3.041485,1.512601,3.039707
1.520063,3.041465,1.516630,3.038901
1.519872,3.041444,1.512601,3.038901
1.519529,3.041379,1.515824,3.038095
1.519182,3.041283,1.511795,3.036484
1.518874,3.041288,1.513407,3.038095
1.518527,3.041278,1.515018,3.038901
1.518275,3.041253,1.512601,3.034872
1.517907,3.041218,1.509377,3.038095
1.517646,3.041177,1.510989,3.038901
1.517333,3.041167,1.515018,3.038095
1.516956,3.041047,1.509377,3.035678
1.516603,3.040991,1.510989,3.034066
1.516331,3.040951,1.508571,3.038901
1.516034,3.040981,1.511795,3.037289
1.515641,3.040775,1.511795,3.034066
1.515389,3.040613,1.507766,3.037289
1.515067,3.040548,1.511795,3.034872
1.514880,3.040452,1.509377,3.038095
1.514477,3.040321,1.507766,3.036484
1.514115,3.040256,1.507766,3.034872
1.513833,3.040195,1.508571,3.036484
1.513666,3.040069,1.503736,3.035678
1.513274,3.039964,1.506154,3.034066
1.512966,3.039913,1.507766,3.034872
1.512599,3.039858,1.506154,3.037289
1.512282,3.039787,1.507766,3.036484
1.511939,3.039707,1.507766,3.032454
1.511708,3.039666,1.507766,3.037289
1.511400,3.039671,1.506960,3.040513
1.511128,3.039551,1.507766,3.034872
1.510851,3.039556,1.507766,3.036484
1.510715,3.039525,1.508571,3.036484
1.510609,3.039510,1.509377,3.038901
1.510393,3.039389,1.508571,3.034872
1.510312,3.039415,1.511795,3.039707
1.510307,3.039460,1.515018,3.039707
1.510438,3.039525,1.515018,3.042125
1.510539,3.039510,1.516630,3.036484
1.510695,3.039541,1.519853,3.041319
1.510947,3.039576,1.519853,3.042125
1.511385,3.039672,1.522271,3.042125
1.511687,3.039732,1.525494,3.042125
1.512297,3.039933,1.527912,3.041319
1.512972,3.040210,1.527912,3.042125
1.513657,3.040407,1.529524,3.042930
1.514392,3.040583,1.534359,3.042125
1.515289,3.040981,1.535165,3.042125
1.516251,3.041404,1.538388,3.045348
1.517349,3.041621,1.540806,3.044542
1.518346,3.042003,1.543224,3.046960
1.519529,3.042401,1.545641,3.046154
1.520774,3.042784,1.546447,3.047765
1.521932,3.043031,1.546447,3.042930
1.523076,3.043414,1.547253,3.047765
1.524405,3.043842,1.548864,3.047765
1.525639,3.044225,1.551282,3.049377
1.526929,3.044527,1.549670,3.046960
1.528293,3.044905,1.550476,3.045348
1.529754,3.045237,1.553700,3.046154
1.531144,3.045549,1.552088,3.046154
1.532474,3.045776,1.548864,3.046154
1.533844,3.046214,1.550476,3.049377
1.535304,3.046597,1.554505,3.050989
1.536674,3.046995,1.556923,3.049377
1.537999,3.047317,1.551282,3.049377
1.539434,3.047730,1.546447,3.050989
1.540880,3.048103,1.556923,3.050989
1.542240,3.048405,1.557729,3.046960
1.543499,3.048732,1.558535,3.050989
1.544743,3.049110,1.558535,3.050989
1.546022,3.049468,1.562564,3.050183
1.547266,3.049699,1.553700,3.050989
1.548273,3.049976,1.560147,3.051795
1.549391,3.050263,1.556923,3.047765
1.550348,3.050586,1.560952,3.049377
1.551220,3.050641,1.560147,3.046154
1.552076,3.050787,1.559341,3.050989
1.552857,3.050974,1.560952,3.050183
1.553582,3.051084,1.562564,3.050989
1.554146,3.051145,1.558535,3.045348
1.554750,3.051336,1.562564,3.050183
1.555239,3.051467,1.561758,3.047765
1.555732,3.051548,1.559341,3.050989
1.556135,3.051563,1.560147,3.051795
1.556659,3.051739,1.558535,3.050183
1.557016,3.051890,1.560147,3.055018
1.557339,3.051875,1.561758,3.050989
1.557716,3.051946,1.560147,3.053406
1.558104,3.052021,1.559341,3.047765
1.558482,3.052122,1.560952,3.054213
1.558673,3.052097,1.559341,3.046154
1.558965,3.052208,1.559341,3.046154
1.559222,3.052303,1.558535,3.049377
1.559464,3.052359,1.559341,3.054213
1.559555,3.052248,1.558535,3.047765
1.559726,3.052248,1.559341,3.045348
1.559822,3.052268,1.557729,3.049377
1.559897,3.052248,1.559341,3.050989
1.559882,3.052132,1.555311,3.047765
1.559862,3.052082,1.556117,3.045348
1.559817,3.052031,1.557729,3.047765
1.559787,3.051926,1.559341,3.049377
1.559641,3.051780,1.554505,3.043736
1.559404,3.051800,1.551282,3.045348
1.559248,3.051744,1.553700,3.049377
1.559152,3.051654,1.556923,3.046154
1.558971,3.051487,1.553700,3.046154
1.558805,3.051467,1.555311,3.046960
1.558689,3.051482,1.555311,3.049377
1.558522,3.051341,1.555311,3.043736
1.558376,3.051210,1.555311,3.046960
1.558195,3.051145,1.553700,3.046154
1.557923,3.051085,1.556923,3.047765
1.557717,3.050853,1.555311,3.043736
1.557536,3.050752,1.556117,3.049377
1.557339,3.050636,1.550476,3.043736
1.557107,3.050566,1.555311,3.046154
1.556921,3.050329,1.554505,3.044542
1.556679,3.050233,1.557729,3.046154
1.556453,3.050092,1.556923,3.046960
1.556317,3.050007,1.558535,3.046154
1.556010,3.049840,1.551282,3.043736
1.555733,3.049785,1.550476,3.046154
1.555450,3.049745,1.553700,3.049377
1.555304,3.049624,1.550476,3.046154
1.555012,3.049508,1.547253,3.049377
1.554816,3.049468,1.554505,3.042930
1.554630,3.049397,1.550476,3.047765
1.554408,3.049221,1.550476,3.043736
1.554121,3.049181,1.548059,3.046154
1.553859,3.049130,1.548864,3.046154
1.553662,3.049105,1.548864,3.049377
1.553406,3.048979,1.548864,3.042125
1.553128,3.048863,1.554505,3.042930
1.552917,3.048798,1.548059,3.044542
1.552816,3.048652,1.546447,3.047765
1.552544,3.048470,1.545641,3.042125
1.552202,3.048425,1.544835,3.042125
1.551955,3.048299,1.544835,3.043736
1.551688,3.048183,1.545641,3.044542
1.551346,3.047987,1.543224,3.042930
1.551049,3.047896,1.543224,3.042930
1.550721,3.047891,1.546447,3.042930
1.550439,3.047740,1.545641,3.044542
1.550107,3.047599,1.542418,3.042125
1.549805,3.047564,1.544835,3.042125
1.549497,3.047488,1.544835,3.046154
1.549175,3.047372,1.544029,3.042930
1.548797,3.047181,1.542418,3.042125
1.548414,3.047095,1.542418,3.042930
1.548142,3.047010,1.543224,3.042125
1.547795,3.046818,1.539194,3.042125
1.547321,3.046642,1.544029,3.042125
1.546964,3.046531,1.540806,3.042125
1.546762,3.046365,1.544835,3.046154
1.546319,3.046128,1.539194,3.041319
1.545881,3.045977,1.539194,3.042125
1.545609,3.045816,1.538388,3.042930
1.545281,3.045695,1.541612,3.042125
1.544833,3.045479,1.536777,3.041319
1.544450,3.045428,1.536777,3.041319
1.544163,3.045328,1.535971,3.044542
1.543765,3.045197,1.541612,3.042125
1.543307,3.045071,1.535165,3.042125
1.542965,3.044980,1.537582,3.042125
1.542597,3.044970,1.536777,3.043736
1.542229,3.044859,1.534359,3.042125
1.541791,3.044794,1.533553,3.042930
1.541489,3.044758,1.534359,3.041319
1.541227,3.044708,1.535971,3.042930
1.540850,3.044607,1.533553,3.041319
1.540477,3.044547,1.535165,3.041319
1.540104,3.044527,1.533553,3.042125
1.539827,3.044436,1.533553,3.043736
1.539464,3.044240,1.533553,3.041319
1.539112,3.044184,1.533553,3.042125
1.538779,3.044058,1.533553,3.042930
1.538452,3.043983,1.533553,3.041319
1.538014,3.043807,1.531136,3.041319
1.537661,3.043746,1.531941,3.040513
1.537339,3.043756,1.531136,3.040513
1.537007,3.043686,1.533553,3.042125
1.536578,3.043590,1.527912,3.038095
1.536246,3.043565,1.527912,3.042125
1.535974,3.043560,1.529524,3.042930
1.535647,3.043469,1.531136,3.036484
1.535178,3.043474,1.531136,3.041319
1.534896,3.043439,1.528718,3.038095
1.534624,3.043444,1.528718,3.042125
1.534191,3.043333,1.527912,3.038095
1.533864,3.043293,1.523077,3.038095
1.533607,3.043263,1.529524,3.042125
1.533370,3.043167,1.527106,3.042930
1.532902,3.043021,1.525494,3.038901
1.532615,3.042960,1.524689,3.038095
1.532353,3.042865,1.527106,3.039707
1.532000,3.042794,1.528718,3.038901
1.531602,3.042653,1.524689,3.037289
1.531265,3.042628,1.521465,3.037289
1.530932,3.042557,1.522271,3.038901
1.530575,3.042487,1.521465,3.040513
1.530116,3.042331,1.521465,3.037289
1.529869,3.042290,1.522271,3.038095
1.529552,3.042245,1.520659,3.042125
1.529229,3.042149,1.519048,3.040513
1.528786,3.042109,1.522271,3.039707
1.528434,3.042089,1.522271,3.039707
1.528051,3.042044,1.523077,3.041319
1.527653,3.041973,1.519853,3.033260
1.527250,3.041877,1.521465,3.038095
1.526857,3.041882,1.519048,3.038095
1.526540,3.041857,1.521465,3.039707
1.526107,3.041671,1.519048,3.037289
1.525759,3.041626,1.519048,3.039707
1.525412,3.041570,1.518242,3.039707
1.525105,3.041470,1.519853,3.039707
1.524611,3.041334,1.515018,3.037289
1.524264,3.041258,1.519853,3.036484
1.523881,3.041192,1.515018,3.036484
1.523584,3.041127,1.520659,3.038095
1.523080,3.041006,1.515824,3.038095
1.522768,3.040971,1.518242,3.036484
1.522380,3.040951,1.518242,3.038095
1.521962,3.040895,1.512601,3.036484
1.521503,3.040875,1.511795,3.034872
1.521201,3.040850,1.515824,3.037289
1.520899,3.040845,1.516630,3.036484
1.520531,3.040699,1.513407,3.037289
1.520149,3.040608,1.510183,3.039707
1.519877,3.040558,1.515824,3.037289
1.519590,3.040533,1.515018,3.039707
1.519252,3.040377,1.515018,3.034066
1.518940,3.040291,1.512601,3.038095
1.518688,3.040225,1.510183,3.039707
1.518391,3.040205,1.515824,3.039707
1.517978,3.040084,1.511795,3.037289
1.517716,3.039954,1.515018,3.038095
1.517449,3.039863,1.513407,3.036484
1.517162,3.039787,1.510183,3.034066
1.516795,3.039641,1.509377,3.034872
1.516447,3.039576,1.509377,3.034066
1.516170,3.039576,1.511795,3.034872
1.515893,3.039465,1.515018,3.034872
1.515460,3.039364,1.509377,3.034066
1.515198,3.039339,1.507766,3.033260
1.514855,3.039314,1.511795,3.038095
1.514578,3.039218,1.510183,3.036484
1.514216,3.039203,1.507766,3.033260
1.513969,3.039178,1.507766,3.034066
1.513687,3.039168,1.511795,3.034872
1.513415,3.039012,1.509377,3.034872
1.513067,3.038931,1.507766,3.036484
1.512886,3.038881,1.506960,3.034872
1.512634,3.038815,1.508571,3.037289
1.512296,3.038669,1.507766,3.030843
1.512045,3.038584,1.507766,3.035678
1.511818,3.038468,1.506960,3.034066
1.511667,3.038417,1.508571,3.035678
1.511375,3.038286,1.507766,3.032454
1.511168,3.038352,1.509377,3.034872
1.511072,3.038387,1.507766,3.034066
1.511007,3.038382,1.510183,3.037289
1.510836,3.038327,1.508571,3.038095
1.510896,3.038427,1.517436,3.036484
1.510961,3.038548,1.515824,3.041319
1.511067,3.038599,1.519853,3.039707
1.511163,3.038624,1.520659,3.040513
1.511490,3.038725,1.519853,3.038095
1.511858,3.038881,1.523883,3.038901
1.512221,3.038986,1.524689,3.039707
1.512649,3.039128,1.525494,3.039707
1.513344,3.039344,1.531136,3.040513
1.514079,3.039485,1.531941,3.043736
1.514734,3.039551,1.533553,3.041319
1.515550,3.039757,1.534359,3.039707
1.516396,3.039954,1.534359,3.041319
1.517283,3.040170,1.536777,3.042125
1.518124,3.040326,1.533553,3.040513
1.519055,3.040593,1.537582,3.043736
1.520043,3.040875,1.540806,3.042125
1.521085,3.041137,1.542418,3.042125
1.521992,3.041298,1.535971,3.042930
1.523140,3.041636,1.541612,3.044542
1.524208,3.042003,1.542418,3.047765
1.525245,3.042225,1.544835,3.042125
1.526298,3.042537,1.539194,3.046154
1.527466,3.042855,1.546447,3.043736
1.528665,3.043157,1.545641,3.044542
1.529738,3.043394,1.544029,3.043736
1.530821,3.043676,1.541612,3.042125
1.531995,3.044003,1.544835,3.044542
1.533198,3.044275,1.546447,3.049377
1.534276,3.044461,1.546447,3.042930
1.535334,3.044733,1.546447,3.043736
1.536442,3.045020,1.544835,3.046154
1.537394,3.045207,1.547253,3.040513
1.538326,3.045328,1.544029,3.043736
1.539272,3.045524,1.547253,3.044542
1.540144,3.045731,1.548864,3.044542
1.541066,3.045902,1.548864,3.046154
1.541695,3.046073,1.546447,3.043736
1.542471,3.046249,1.551282,3.044542
1.543151,3.046466,1.548864,3.045348
1.543644,3.046536,1.546447,3.043736
1.544158,3.046753,1.548864,3.043736
1.544772,3.046924,1.554505,3.046154
1.545316,3.047080,1.552088,3.047765
1.545830,3.047141,1.548864,3.046960
1.546213,3.047252,1.552088,3.044542
1.546762,3.047378,1.555311,3.044542
1.547260,3.047519,1.555311,3.046154
1.547648,3.047478,1.552894,3.042930
1.548036,3.047549,1.551282,3.046154
1.548485,3.047725,1.554505,3.046154
1.548802,3.047801,1.553700,3.046960
1.549084,3.047755,1.551282,3.044542
1.549431,3.047901,1.548864,3.044542
1.549724,3.047977,1.553700,3.045348
1.550021,3.047992,1.553700,3.046960
1.550127,3.047977,1.551282,3.043736
1.550353,3.048093,1.546447,3.042930
1.550580,3.048183,1.550476,3.046154
1.550791,3.048178,1.553700,3.047765
1.550897,3.048204,1.547253,3.042930
1.551094,3.048284,1.547253,3.042930
1.551210,3.048380,1.550476,3.049377
1.551326,3.048299,1.546447,3.042930
1.551436,3.048329,1.546447,3.042930
1.551587,3.048395,1.548864,3.042930
1.551668,3.048430,1.548059,3.047765
1.551673,3.048345,1.549670,3.043736
1.551648,3.048299,1.550476,3.042930
1.551738,3.048254,1.548059,3.044542
1.551764,3.048274,1.553700,3.050989
1.551764,3.048128,1.547253,3.042125
1.551834,3.048078,1.548059,3.043736
1.551814,3.047972,1.546447,3.042930
1.551714,3.047901,1.548864,3.042930
1.551532,3.047775,1.548059,3.042125
1.551406,3.047826,1.548864,3.042930
1.551275,3.047821,1.546447,3.044542
1.551134,3.047740,1.547253,3.042125
1.550882,3.047599,1.547253,3.042125
1.550726,3.047655,1.548864,3.042930
1.550555,3.047670,1.548864,3.048571
1.550373,3.047579,1.546447,3.044542
1.550152,3.047529,1.548059,3.045348
1.550066,3.047498,1.547253,3.044542
1.549951,3.047503,1.552088,3.046154
1.549815,3.047332,1.548864,3.043736
1.549603,3.047372,1.546447,3.042125
1.549553,3.047413,1.546447,3.042125
1.549507,3.047393,1.548864,3.046154
1.549346,3.047221,1.546447,3.044542
1.549200,3.047186,1.549670,3.042930
1.549120,3.047126,1.547253,3.044542
1.549014,3.047065,1.547253,3.043736
1.548913,3.046879,1.546447,3.042125
1.548817,3.046884,1.546447,3.044542
1.548727,3.046904,1.546447,3.043736
1.548601,3.046798,1.548864,3.042125
1.548470,3.046713,1.545641,3.042930
1.548404,3.046718,1.547253,3.042930
1.548283,3.046793,1.546447,3.046154
1.548162,3.046743,1.546447,3.045348
1.548037,3.046713,1.544029,3.042125
1.547961,3.046728,1.546447,3.044542
1.547870,3.046793,1.548059,3.044542
1.547805,3.046753,1.546447,3.043736
1.547709,3.046728,1.546447,3.045348
1.547638,3.046723,1.544835,3.043736
1.547623,3.046708,1.546447,3.046960
1.547588,3.046541,1.547253,3.039707
1.547518,3.046516,1.547253,3.041319
1.547452,3.046491,1.546447,3.044542
1.547407,3.046456,1.546447,3.043736
1.547286,3.046305,1.546447,3.041319
1.547206,3.046280,1.545641,3.042125
1.547160,3.046254,1.545641,3.042930
1.547060,3.046254,1.546447,3.042125
1.546873,3.046078,1.542418,3.040513
1.546732,3.046068,1.546447,3.042125
1.546682,3.046023,1.546447,3.046154
1.546581,3.045932,1.547253,3.042125
1.546445,3.045836,1.545641,3.042125
1.546389,3.045851,1.542418,3.042125
1.546314,3.045836,1.542418,3.044542
1.546198,3.045761,1.544029,3.042930
1.546027,3.045695,1.543224,3.042930
1.545951,3.045695,1.543224,3.042125
1.545901,3.045741,1.544029,3.044542
1.545705,3.045640,1.542418,3.042125
1.545599,3.045584,1.543224,3.042125
1.545528,3.045564,1.543224,3.042930
1.545438,3.045549,1.539194,3.042125
1.545272,3.045403,1.542418,3.042125
1.545176,3.045343,1.542418,3.041319
1.545005,3.045207,1.538388,3.042125
1.544849,3.045106,1.542418,3.042125
1.544546,3.044990,1.537582,3.041319
1.544279,3.044940,1.540806,3.042930
1.544002,3.044970,1.539194,3.042125
1.543715,3.044894,1.536777,3.042125
1.543338,3.044779,1.538388,3.040513
1.543025,3.044814,1.533553,3.041319
1.542718,3.044814,1.536777,3.042930
1.542396,3.044728,1.533553,3.040513
1.541998,3.044663,1.533553,3.040513
1.541700,3.044643,1.533553,3.041319
1.541423,3.044592,1.535971,3.042125
1.541041,3.044421,1.535165,3.040513
1.540693,3.044280,1.532747,3.038901
1.540351,3.044265,1.533553,3.042125
1.540079,3.044320,1.533553,3.044542
1.539680,3.044144,1.528718,3.038095
1.539333,3.044053,1.529524,3.042125
1.539001,3.044013,1.533553,3.042125
1.538673,3.043943,1.533553,3.041319
1.538260,3.043827,1.529524,3.040513
1.537918,3.043781,1.533553,3.041319
1.537636,3.043751,1.531136,3.042125
1.537263,3.043660,1.533553,3.041319
1.536814,3.043479,1.531136,3.039707
1.536517,3.043419,1.531941,3.039707
1.536139,3.043444,1.533553,3.042125
1.535696,3.043358,1.529524,3.041319
1.535293,3.043278,1.531136,3.041319
1.534971,3.043237,1.529524,3.039707
1.534628,3.043263,1.532747,3.042930
1.534271,3.043222,1.529524,3.038901
1.533893,3.043172,1.531941,3.040513
1.533686,3.043132,1.531136,3.038901
1.533409,3.043122,1.527912,3.040513
1.533097,3.042986,1.524689,3.037289
1.532835,3.042915,1.526300,3.036484
1.532558,3.042840,1.528718,3.039707
1.532417,3.042688,1.528718,3.040513
1.532024,3.042532,1.524689,3.039707
1.531757,3.042512,1.526300,3.038901
1.531476,3.042391,1.523883,3.037289
1.531063,3.042326,1.524689,3.040513
1.530665,3.042205,1.523077,3.037289
1.530388,3.042220,1.523077,3.038095
1.530050,3.042225,1.521465,3.042125
1.529683,3.042134,1.517436,3.037289
1.529305,3.042003,1.521465,3.038095
1.529028,3.041958,1.522271,3.035678
1.528726,3.041953,1.519048,3.040513
1.528358,3.041872,1.522271,3.037289
1.527920,3.041802,1.518242,3.035678
1.527597,3.041747,1.519853,3.040513
1.527235,3.041701,1.522271,3.040513
1.526792,3.041535,1.518242,3.034066
1.526369,3.041429,1.517436,3.034066
1.525971,3.041379,1.520659,3.036484
1.525603,3.041308,1.519853,3.036484
1.525170,3.041127,1.518242,3.036484
1.524818,3.041046,1.518242,3.038095
1.524435,3.040976,1.515018,3.038095
1.524007,3.040880,1.515824,3.034872
1.523528,3.040744,1.515824,3.034066
1.523025,3.040684,1.519048,3.034066
1.522627,3.040679,1.513407,3.035678
1.522143,3.040578,1.519048,3.036484
1.521695,3.040457,1.515824,3.036484
1.521348,3.040402,1.513407,3.035678
1.520995,3.040377,1.512601,3.037289
1.520597,3.040281,1.511795,3.038095
1.520058,3.040251,1.510183,3.038095
1.519726,3.040190,1.512601,3.033260
1.519368,3.040135,1.516630,3.038095
1.519005,3.040024,1.511795,3.032454
1.518683,3.039908,1.512601,3.033260
1.518320,3.039823,1.510183,3.034872
1.518008,3.039742,1.518242,3.033260
1.517590,3.039561,1.510989,3.034872
1.517232,3.039404,1.510183,3.033260
1.516915,3.039294,1.515824,3.034872
1.516603,3.039228,1.516630,3.034066
1.516140,3.039072,1.508571,3.030843
1.515842,3.038986,1.506960,3.034066
1.515515,3.038936,1.510183,3.034872
1.515147,3.038861,1.510989,3.036484
1.514744,3.038714,1.508571,3.033260
1.514437,3.038704,1.507766,3.033260
1.514135,3.038740,1.510183,3.038095
1.513823,3.038594,1.508571,3.036484
1.513470,3.038558,1.507766,3.033260
1.513183,3.038503,1.506960,3.032454
1.512911,3.038508,1.508571,3.034066
1.512609,3.038377,1.507766,3.032454
1.512332,3.038301,1.507766,3.036484
1.512055,3.038201,1.507766,3.034066
1.511914,3.038176,1.507766,3.034066
1.511576,3.037989,1.507766,3.029231
1.511320,3.037904,1.507766,3.034872
1.511063,3.037818,1.507766,3.034872
1.510806,3.037747,1.505348,3.034872
1.510423,3.037576,1.504542,3.030037
1.510136,3.037526,1.507766,3.037289
1.509889,3.037445,1.502930,3.031648
1.509657,3.037355,1.505348,3.032454
1.509330,3.037229,1.506154,3.032454
1.509108,3.037173,1.506960,3.033260
1.508942,3.037209,1.506960,3.036484
1.508806,3.037168,1.501319,3.033260
1.508549,3.037133,1.507766,3.034066
1.508448,3.037183,1.506154,3.033260
1.508458,3.037284,1.508571,3.038095
1.508373,3.037229,1.507766,3.034872
1.508282,3.037249,1.507766,3.038901
1.508398,3.037350,1.512601,3.036484
1.508509,3.037491,1.518242,3.042125
1.508645,3.037501,1.515824,3.034066
1.508906,3.037571,1.515824,3.042125
1.509239,3.037742,1.518242,3.038901
1.509697,3.037858,1.523077,3.038095
1.510075,3.037904,1.522271,3.039707
1.510543,3.038110,1.524689,3.042125
1.511132,3.038216,1.523077,3.042125
1.511727,3.038437,1.525494,3.042125
1.512271,3.038543,1.527106,3.040513
1.512961,3.038745,1.527912,3.040513
1.513646,3.038971,1.531941,3.042125
1.514366,3.039208,1.527912,3.042125
1.515076,3.039374,1.529524,3.042125
1.515882,3.039656,1.532747,3.042930
1.516703,3.039933,1.532747,3.044542
1.517524,3.040115,1.531941,3.039707
1.518259,3.040306,1.527912,3.040513
1.519131,3.040613,1.533553,3.041319
1.520022,3.040875,1.534359,3.044542
1.520823,3.041077,1.533553,3.041319
1.521659,3.041374,1.531941,3.039707
1.522531,3.041585,1.531941,3.042125
1.523362,3.041827,1.533553,3.041319
1.524157,3.041953,1.532747,3.042125
1.524953,3.042180,1.534359,3.042125
1.525799,3.042386,1.533553,3.042125
1.526706,3.042588,1.531941,3.042125
1.527406,3.042714,1.531136,3.041319
1.528157,3.042986,1.531941,3.042930
1.528867,3.043217,1.533553,3.042125
1.529506,3.043343,1.534359,3.041319
1.530086,3.043434,1.533553,3.038901
1.530705,3.043580,1.535165,3.041319
1.531305,3.043746,1.533553,3.042125
1.531773,3.043776,1.533553,3.042125
1.532106,3.043822,1.534359,3.043736
1.532544,3.043937,1.536777,3.042930
1.532982,3.043993,1.535971,3.042125
1.533254,3.044023,1.535971,3.038901
1.533501,3.044033,1.538388,3.042125
1.533808,3.044119,1.536777,3.042125
1.533969,3.044189,1.533553,3.042930
1.534115,3.044169,1.535971,3.042125
1.534342,3.044184,1.535971,3.042125
1.534493,3.044194,1.535971,3.042125
1.534714,3.044189,1.535971,3.042125
1.534725,3.044134,1.533553,3.042125
1.534795,3.044184,1.534359,3.042930
1.534936,3.044275,1.535971,3.043736
1.535042,3.044235,1.533553,3.042125
1.535067,3.044199,1.533553,3.041319
1.535163,3.044230,1.533553,3.042125
1.535198,3.044230,1.533553,3.042125
1.535233,3.044214,1.533553,3.041319
1.535273,3.044230,1.532747,3.042125
1.535324,3.044235,1.533553,3.039707
1.535384,3.044235,1.534359,3.042125
1.535359,3.044149,1.533553,3.040513
1.535299,3.044099,1.535165,3.042125
1.535329,3.044129,1.533553,3.042125
1.535324,3.044124,1.533553,3.042125
1.535294,3.043983,1.532747,3.042125
1.535304,3.043958,1.533553,3.042125
1.535288,3.043932,1.533553,3.042125
1.535288,3.043917,1.533553,3.041319
1.535173,3.043812,1.533553,3.039707
1.535137,3.043812,1.535971,3.042125
1.535097,3.043842,1.533553,3.041319
1.535067,3.043781,1.531941,3.041319
1.534921,3.043736,1.533553,3.040513
1.534850,3.043726,1.533553,3.042125
1.534785,3.043751,1.533553,3.042125
1.534654,3.043655,1.535165,3.037289
1.534568,3.043615,1.533553,3.042125
1.534528,3.043590,1.533553,3.041319
1.534407,3.043600,1.533553,3.041319
1.534302,3.043514,1.532747,3.039707
1.534125,3.043469,1.533553,3.038095
1.534100,3.043454,1.531941,3.039707
1.534050,3.043489,1.533553,3.041319
1.533959,3.043358,1.533553,3.039707
1.533853,3.043353,1.533553,3.038095
1.533833,3.043303,1.532747,3.041319
1.533803,3.043278,1.532747,3.042930
1.533737,3.043187,1.533553,3.038901
1.533732,3.043177,1.531136,3.042125
1.533692,3.043137,1.531136,3.042125
1.533642,3.043106,1.531136,3.040513
1.533541,3.043066,1.530330,3.039707
1.533516,3.043081,1.528718,3.040513
1.533395,3.043101,1.533553,3.043736
1.533330,3.043051,1.531941,3.042125
1.533239,3.042975,1.529524,3.042125
1.533189,3.042991,1.526300,3.042125
1.533128,3.042991,1.532747,3.042125
1.533032,3.042895,1.533553,3.038901
1.532952,3.042845,1.531136,3.040513
1.532856,3.042839,1.531136,3.040513
1.532811,3.042809,1.531136,3.042125
1.532629,3.042709,1.531136,3.037289
1.532498,3.042658,1.527106,3.042125
1.532403,3.042638,1.527912,3.040513
1.532261,3.042608,1.523077,3.042125
1.532030,3.042497,1.528718,3.035678
1.531798,3.042472,1.531941,3.038095
1.531617,3.042411,1.528718,3.040513
1.531420,3.042371,1.531941,3.038095
1.531128,3.042285,1.525494,3.039707
1.531017,3.042250,1.521465,3.037289
1.530781,3.042235,1.527912,3.041319
1.530539,3.042195,1.527912,3.037289
1.530211,3.042099,1.525494,3.036484
1.529965,3.042064,1.521465,3.038095
1.529723,3.042029,1.522271,3.038901
1.529380,3.041983,1.521465,3.036484
1.528962,3.041953,1.523077,3.038901
1.528575,3.041908,1.522271,3.038901
1.528217,3.041878,1.523077,3.040513
1.527758,3.041782,1.520659,3.034872
1.527416,3.041706,1.521465,3.038095
1.527028,3.041666,1.519853,3.039707
1.526706,3.041641,1.520659,3.041319
1.526348,3.041490,1.518242,3.036484
1.525925,3.041414,1.515824,3.036484
1.525597,3.041359,1.518242,3.038095
1.525270,3.041298,1.518242,3.036484
1.524751,3.041233,1.515018,3.034066
1.524394,3.041198,1.518242,3.037289
1.523956,3.041177,1.518242,3.039707
1.523548,3.041107,1.510989,3.038095
1.523069,3.041057,1.512601,3.033260
1.522767,3.041026,1.515824,3.038095
1.522329,3.041031,1.516630,3.039707
1.521901,3.040931,1.518242,3.037289
1.521483,3.040890,1.515018,3.037289
1.521160,3.040860,1.515824,3.034872
