1.953407,2.063004
1.959854,2.058974
1.958242,2.049304
1.975971,2.087985
1.974359,2.063004
1.955018,2.071868
1.959854,2.049304
1.975971,2.054139
1.955824,2.070256
1.960659,2.066227
1.974359,2.063004
1.971941,2.044469
1.950183,2.077509
1.954212,2.049304
1.943736,2.070256
1.951795,2.071062
1.979194,2.043663
1.958242,2.032381
1.946154,2.046886
1.969524,2.066227
1.953407,2.075092
1.961465,2.082344
1.975165,2.050110
1.942930,2.045275
1.938095,2.075092
1.923590,2.090403
1.932454,2.071062
1.959048,2.083956
1.942930,2.051722
1.941319,2.047692
1.921172,2.075092
1.942124,2.070256
1.931648,2.071062
1.963077,2.066227
1.936484,2.008205
1.934872,2.044469
1.933260,2.054139
1.925201,2.042051
1.937289,2.050110
1.934872,2.067033
1.944542,2.034799
1.896191,2.018681
1.930037,2.026740
1.934872,2.034799
1.942124,2.028352
1.932454,2.075092
1.907472,2.022711
1.895385,2.036410
1.908278,2.051722
1.908278,2.047692
1.905055,2.050110
1.920366,2.048498
1.916337,2.038828
1.896996,2.021905
1.897802,2.064615
1.889744,2.049304
1.907472,2.050916
1.920366,2.075092
1.901832,2.021905
1.899414,2.018681
1.894579,2.054945
1.910696,2.063004
1.920366,2.055751
1.930843,2.050916
1.921172,2.022711
1.900220,2.015458
1.909084,2.044469
1.919560,2.028352
1.914725,2.070256
1.938095,2.063004
1.906667,2.018681
1.876044,2.020293
1.901832,2.063810
1.892967,2.030769
1.894579,2.074286
1.919560,2.049304
1.892161,2.005788
1.884908,2.033187
1.889744,2.023516
1.897802,2.044469
1.894579,2.044469
1.900220,2.049304
1.891355,2.000147
1.869597,2.044469
1.894579,2.038022
1.874432,2.042051
1.918755,2.047692
1.905055,2.035604
1.869597,1.992088
1.889744,2.024322
1.882491,2.033993
1.884103,2.025128
1.900220,2.067839
1.898608,2.029157
1.893773,1.997729
1.877656,2.021099
1.899414,2.042051
1.883297,2.056557
1.909084,2.032381
1.893773,2.030769
1.879267,2.000147
1.876044,2.033993
1.867180,2.033187
1.884908,2.036410
1.899414,2.049304
1.884103,2.038828
1.874432,2.009817
1.885714,2.035604
1.880073,2.034799
1.880073,2.038828
1.892161,2.045275
1.868791,2.023516
1.876850,2.008205
1.883297,2.024322
1.871209,2.024322
1.863150,2.042857
1.884103,2.049304
1.863150,2.012234
1.868791,2.008205
1.873626,2.034799
1.872820,2.031575
1.863956,2.050110
1.892161,2.021905
1.880879,2.010623
1.843809,2.009817
1.861538,2.011429
1.855897,2.024322
1.867985,2.023516
1.856703,2.013040
1.853480,2.003370
1.847839,2.006593
1.861538,2.005788
1.863956,2.003370
1.865568,2.023516
1.868791,2.010623
1.843004,1.980000
1.855092,1.994506
1.858315,2.024322
1.855897,2.006593
1.860733,2.033187
1.853480,2.014652
1.838169,2.001758
1.842198,1.993700
1.847033,1.997729
1.840586,2.005788
1.869597,2.020293
1.844615,2.022711
1.822051,1.985641
1.853480,2.010623
1.853480,2.023516
1.843004,2.005788
1.867985,2.009817
1.841392,1.979194
1.806740,1.982418
1.844615,1.980806
1.830916,2.000147
1.822857,2.000147
1.835751,2.010623
1.835751,1.985641
1.819634,1.987253
1.829304,1.995311
1.835751,1.986447
1.840586,1.992088
1.856703,2.010623
1.842198,1.992894
1.816410,1.971941
1.837363,1.972747
1.830916,1.976777
1.822051,1.997729
1.837363,1.984029
1.817216,1.988864
1.817216,1.964689
1.828498,1.950183
1.817216,2.002564
1.847033,2.009011
1.835751,1.988059
1.805128,1.967912
1.821245,1.987253
1.818022,1.961465
1.834945,1.989670
1.831722,2.015458
1.843004,1.990476
1.806740,1.969524
1.814799,2.010623
1.821245,1.970330
1.816410,1.979194
1.842198,2.004982
1.819634,1.993700
1.801905,1.979194
1.805128,1.983223
1.818022,1.971941
1.818022,1.980806
1.830110,1.983223
1.808352,1.971941
1.785788,1.969524
1.808352,1.984029
1.817216,1.956630
1.818022,1.975971
1.821245,1.993700
1.806740,1.974359
1.791429,1.982418
1.821245,1.959854
1.812381,1.950989
1.819634,1.980806
1.841392,1.993700
1.817216,1.966300
1.806740,1.971135
1.827692,1.980806
1.817216,1.971135
1.822857,1.992894
1.832528,1.979194
1.818022,1.989670
1.813187,1.967912
1.815604,1.980000
1.824469,1.987253
1.838974,1.995311
1.843809,2.011429
1.828498,1.988059
1.827692,1.971135
1.838169,1.999341
1.843004,1.982418
1.851062,2.017070
1.863956,2.014652
1.843004,1.987253
1.837363,1.996117
1.847839,2.017875
1.840586,1.996117
1.880879,2.001758
1.857509,2.021905
1.856703,1.977582
1.859121,2.023516
1.845421,1.996923
1.847033,1.972747
1.880879,2.022711
1.868791,2.017875
1.840586,1.993700
1.846227,2.010623
1.851868,2.023516
1.882491,1.980806
1.868791,2.040440
1.858315,2.021099
1.835751,2.008205
1.872015,2.006593
1.868791,2.018681
1.863150,2.002564
1.885714,2.025128
1.876044,2.019487
1.842198,1.998535
1.847033,2.011429
1.863150,2.028352
1.880073,2.004982
1.871209,2.018681
1.879267,2.015458
1.851868,2.005788
1.868791,2.015458
1.850256,1.997729
1.857509,2.010623
1.872015,2.046886
1.871209,2.014652
1.861538,2.016264
1.855897,2.014652
1.858315,2.011429
1.863956,2.010623
1.896191,2.000147
1.878461,2.020293
1.863956,2.027546
1.868791,2.036410
1.857509,2.014652
1.863150,2.024322
1.877656,2.023516
1.856703,2.028352
1.859121,2.010623
1.859927,2.028352
1.880073,2.023516
1.892967,2.023516
1.867985,2.040440
1.851062,2.017875
1.853480,2.014652
1.886520,2.021099
1.869597,2.034799
1.893773,2.026740
1.879267,2.014652
1.872820,1.997729
1.868791,1.997729
1.856703,2.018681
1.864762,2.027546
1.883297,2.021905
1.867985,2.030769
1.842198,2.011429
1.860733,2.012234
1.837363,2.010623
1.835751,2.020293
1.884103,1.984835
1.843004,2.010623
1.829304,1.994506
1.852674,2.013040
1.855897,2.018681
1.834945,2.004176
1.855897,2.013846
1.830110,2.016264
1.830916,1.996923
1.837363,2.000147
1.842198,2.023516
1.850256,2.024322
1.861538,2.022711
1.838974,2.021905
1.828498,1.988059
1.855092,2.010623
1.851062,2.009817
1.841392,2.011429
1.869597,2.009011
1.860733,2.010623
1.809963,1.992088
1.844615,2.015458
1.867180,1.997729
1.847839,2.015458
1.861538,1.997729
1.850256,1.997729
1.834139,2.001758
1.863150,2.000147
1.830916,2.021099
1.844615,2.025128
1.844615,1.994506
1.843004,1.995311
1.843004,1.992894
1.845421,1.989670
1.847839,2.000147
1.855092,1.998535
1.855897,2.002564
1.829304,1.964689
1.832528,1.992088
1.840586,1.992894
1.832528,1.996923
1.848645,2.010623
1.828498,1.992894
1.841392,1.982418
1.837363,1.998535
1.822857,1.986447
1.845421,1.999341
1.868791,2.041245
1.843004,2.008205
1.812381,1.973553
1.843809,1.966300
1.836557,1.996117
1.822857,1.979194
1.858315,2.001758
1.838974,1.997729
1.825275,1.980806
1.834139,2.001758
1.843004,2.010623
1.829304,1.996117
1.859927,2.021099
1.830110,1.983223
1.804322,1.975165
1.831722,1.971941
1.826886,1.993700
1.838169,1.980806
1.843004,1.988059
1.834945,1.971941
1.806740,1.971135
1.814799,1.989670
1.825275,1.973553
1.843809,2.013846
1.832528,2.006593
1.837363,1.946960
1.807546,1.960659
1.829304,1.980806
1.834139,1.997729
1.843004,1.990476
1.842198,1.979194
1.831722,1.976777
1.812381,1.995311
1.830110,1.987253
1.843004,1.995311
1.841392,1.992894
1.844615,2.006593
1.826886,1.971135
1.818022,1.987253
1.841392,1.985641
1.830916,1.996923
1.824469,1.980806
1.837363,1.971941
1.819634,1.971941
1.818022,1.963883
1.816410,1.967106
1.825275,1.989670
1.821245,2.020293
1.822051,1.990476
1.799487,1.982418
1.814799,1.963883
1.824469,1.982418
1.828498,1.971941
1.830916,1.995311
1.805128,1.972747
1.804322,1.975165
1.801905,1.975971
1.803517,1.964689
1.817216,1.974359
1.828498,1.995311
1.804322,1.990476
1.791429,1.959048
1.804322,1.959048
1.822857,1.979194
1.801905,1.987253
1.824469,1.983223
1.817216,1.980000
1.785788,1.953407
1.816410,1.967912
1.816410,1.976777
1.798681,1.995311
1.803517,1.979194
1.801099,1.967106
1.805128,1.950989
1.817216,1.963077
1.805128,1.964689
1.801905,1.982418
1.805934,1.996117
1.789817,1.956630
1.789011,1.976777
1.791429,1.962271
1.792234,1.971941
1.809963,1.971941
1.795458,1.982418
1.791429,1.954212
1.786593,1.971135
1.811575,1.955018
1.798681,1.948571
1.816410,1.982418
1.802711,1.969524
1.791429,1.959048
1.791429,1.959048
1.792234,1.955824
1.802711,1.946154
1.817216,1.987253
1.793040,1.966300
1.765641,1.958242
1.793040,1.976777
1.803517,1.946154
1.795458,1.950183
1.781758,1.963883
1.789011,1.959854
1.774505,1.971941
1.787399,1.959854
1.791429,1.966300
1.799487,1.938901
1.801099,1.959048
1.791429,1.964689
1.767253,1.948571
1.765641,1.958242
1.788205,1.967106
1.786593,1.956630
1.796264,1.971941
1.788205,1.945348
1.778535,1.950989
1.791429,1.951795
1.774505,1.946154
1.784176,1.953407
1.805934,1.959048
1.782564,1.941319
1.762418,1.942124
1.803517,1.946154
1.787399,1.946154
1.789011,1.945348
1.793846,1.954212
1.783370,1.950183
1.765641,1.959854
1.783370,1.959048
1.776923,1.959048
1.791429,1.954212
1.808352,1.963077
1.790623,1.950183
1.793846,1.957436
1.797875,1.963077
1.800293,1.967106
1.822857,1.959048
1.821245,1.969524
1.798681,1.959854
1.829304,1.985641
1.804322,1.984029
1.833333,1.971135
1.832528,1.970330
1.830916,1.977582
1.821245,1.961465
1.818022,1.961465
1.825275,1.983223
1.813187,1.988059
1.854286,1.992088
1.818828,1.972747
1.808352,1.960659
1.830916,1.996117
1.821245,1.984029
1.843809,1.988864
1.843004,1.971941
1.840586,1.979194
1.806740,1.971135
1.834945,1.971135
1.837363,1.986447
1.833333,2.006593
1.834139,1.990476
1.808352,1.981612
1.833333,1.979194
1.809963,1.989670
1.847033,1.975165
1.843809,1.997729
1.844615,1.997729
1.824469,1.988059
1.822857,1.975165
1.841392,1.985641
1.825275,1.993700
1.846227,1.996923
1.832528,1.979194
1.829304,1.979194
1.811575,1.980806
1.821245,1.985641
1.829304,1.998535
1.828498,1.995311
1.826886,1.984835
1.816410,1.967106
1.802711,1.997729
1.826081,1.953407
1.828498,1.985641
1.829304,1.996117
1.830110,1.992088
1.811575,1.988059
1.824469,1.980806
1.827692,2.001758
1.830110,1.979194
1.840586,1.997729
1.831722,1.964689
1.795458,1.958242
1.817216,1.971135
1.811575,1.971941
1.806740,1.975971
1.843809,1.987253
1.813187,1.992088
1.800293,1.953407
1.802711,1.985641
1.791429,1.984835
1.813993,1.967106
1.814799,1.993700
1.802711,1.967106
1.785788,1.946960
1.791429,1.981612
1.818828,1.972747
1.778535,1.971941
1.800293,1.968718
1.789817,1.946154
1.764835,1.945348
1.792234,1.971941
1.787399,1.950183
1.789011,1.970330
1.804322,1.971941
1.790623,1.949377
1.765641,1.920366
1.779341,1.952601
1.779341,1.957436
1.791429,1.959048
1.791429,1.953407
1.780146,1.950989
1.772894,1.950183
1.776923,1.946154
1.776923,1.969524
1.786593,1.960659
1.790623,1.958242
1.756777,1.954212
1.751941,1.953407
1.777729,1.947766
1.757582,1.953407
1.793040,1.963077
1.765641,1.957436
1.763223,1.938901
1.772894,1.946154
1.776117,1.955824
1.777729,1.971135
1.789817,1.974359
1.783370,1.953407
1.768865,1.946154
1.770476,1.961465
1.764029,1.956630
1.767253,1.948571
1.792234,1.979194
1.765641,1.959854
1.737436,1.930843
1.780952,1.950989
1.760000,1.959048
1.773700,1.957436
1.782564,1.973553
1.768059,1.955018
1.738242,1.921978
1.765641,1.960659
1.765641,1.937289
1.771282,1.946154
1.777729,1.957436
1.760806,1.937289
1.751136,1.946154
1.769670,1.948571
1.768059,1.940513
1.765641,1.946154
1.769670,1.950989
1.761612,1.937289
1.737436,1.933260
1.768059,1.946154
1.765641,1.942124
1.752747,1.951795
1.803517,1.959854
1.751136,1.947766
1.752747,1.940513
1.771282,1.956630
1.743883,1.925201
1.765641,1.950183
1.756777,1.920366
1.745494,1.930037
1.739854,1.938095
1.751941,1.958242
1.755971,1.944542
1.766447,1.961465
1.745494,1.922784
1.740659,1.948571
1.736630,1.959048
1.756777,1.944542
1.750330,1.938095
1.777729,1.942124
1.747106,1.944542
1.721319,1.938901
1.731795,1.915531
1.738242,1.950183
1.739854,1.961465
1.748718,1.980000
1.735018,1.947766
1.735018,1.934872
1.747106,1.958242
1.756777,1.935678
1.737436,1.953407
1.752747,1.954212
1.747912,1.953407
1.718901,1.924396
1.739048,1.947766
1.739854,1.951795
1.739854,1.937289
1.758388,1.945348
1.731795,1.931648
1.734212,1.950183
1.744689,1.946154
1.732601,1.938095
1.735824,1.942930
1.760000,1.959048
1.727766,1.921172
1.718901,1.892161
1.715678,1.946154
1.735018,1.929231
1.729377,1.953407
1.737436,1.944542
1.725348,1.907472
1.721319,1.932454
1.726154,1.934066
1.730989,1.930843
1.750330,1.932454
1.734212,1.919560
1.722930,1.920366
1.726154,1.931648
1.740659,1.929231
1.718095,1.920366
1.760806,1.937289
1.723736,1.907472
1.695531,1.907472
1.718095,1.934066
1.742271,1.912308
1.735018,1.931648
1.741465,1.946154
1.735824,1.894579
1.701172,1.888938
1.739048,1.914725
1.726960,1.919560
1.722930,1.967912
1.739854,1.921172
1.727766,1.909890
1.701172,1.838974
1.726154,1.900220
1.714066,1.938901
1.705202,1.947766
1.726154,1.937289
1.710037,1.913114
1.701172,1.920366
1.701172,1.925201
1.715678,1.930843
1.714066,1.925201
1.740659,1.921172
1.709231,1.907472
1.682637,1.906667
1.715678,1.946154
1.714066,1.920366
1.708425,1.928425
1.721319,1.920366
1.702784,1.905055
1.703590,1.904249
1.705202,1.907472
1.702784,1.912308
1.714066,1.937289
1.722125,1.916337
1.698755,1.896191
1.703590,1.914725
1.721319,1.909890
1.714066,1.922784
1.714066,1.921978
1.722125,1.911502
1.688278,1.867180
1.695531,1.888938
1.718095,1.925201
1.702784,1.928425
1.710037,1.934066
1.711648,1.937289
1.701172,1.932454
1.705202,1.907472
1.712454,1.907472
1.718095,1.920366
1.714872,1.932454
1.710037,1.917143
1.689084,1.893773
1.706813,1.927619
1.711648,1.926007
1.708425,1.921172
1.730989,1.946960
1.714066,1.928425
1.704396,1.890549
1.714066,1.921172
1.729377,1.894579
1.736630,1.916337
1.742271,1.959048
1.714066,1.902637
1.712454,1.909084
1.739854,1.917949
1.739854,1.940513
1.737436,1.933260
1.753553,1.968718
1.748718,1.920366
1.732601,1.897802
1.762418,1.929231
1.735824,1.963883
1.744689,1.937289
1.787399,1.971941
1.756777,1.946154
1.739854,1.928425
1.760806,1.942124
1.762418,1.943736
1.739048,1.959048
1.775311,1.953407
1.757582,1.938095
1.747106,1.958242
1.769670,1.934872
1.765641,1.971941
1.768059,1.964689
1.789817,1.959048
1.745494,1.934872
1.740659,1.968718
1.763223,1.957436
1.752747,1.951795
1.788205,1.969524
1.770476,1.948571
1.764835,1.948571
1.755165,1.947766
1.757582,1.942124
1.765641,1.970330
1.791429,1.989670
1.776117,1.945348
1.751136,1.943736
1.771282,1.953407
1.760000,1.964689
1.776117,1.909084
1.787399,1.966300
1.783370,1.969524
1.755165,1.947766
1.765641,1.963077
1.765641,1.946154
1.769670,1.971135
1.793846,1.948571
1.770476,1.966300
1.747106,1.930037
1.761612,1.959854
1.773700,1.946960
1.766447,1.969524
1.784176,1.985641
1.757582,1.938901
1.755165,1.955018
1.779341,1.970330
1.755165,1.946960
1.761612,1.971941
1.767253,1.974359
1.748718,1.941319
1.757582,1.935678
1.772894,1.953407
1.758388,1.938095
1.769670,1.938095
1.791429,1.944542
1.736630,1.946154
1.742271,1.945348
1.756777,1.924396
1.768059,1.934066
1.768059,1.946154
1.767253,1.950183
1.752747,1.945348
1.739854,1.940513
1.757582,1.950989
1.765641,1.946154
1.771282,1.971941
1.758388,1.951795
1.761612,1.946960
1.739854,1.946154
1.744689,1.930843
1.763223,1.927619
1.780952,1.957436
1.756777,1.946154
1.738242,1.919560
1.739854,1.903443
1.747106,1.950989
1.753553,1.943736
1.760806,1.953407
1.751941,1.926007
1.728571,1.949377
1.743883,1.959854
1.735824,1.949377
1.739854,1.928425
1.768059,1.937289
1.739854,1.942124
1.739854,1.946154
1.740659,1.936484
1.768059,1.959048
1.739854,1.931648
1.774505,1.957436
1.739854,1.947766
1.730989,1.924396
1.744689,1.937289
1.752747,1.955018
1.764029,1.927619
1.748718,1.969524
1.740659,1.920366
1.716483,1.924396
1.757582,1.920366
1.753553,1.946154
1.739854,1.968718
1.760000,1.936484
1.734212,1.914725
1.726960,1.931648
1.731795,1.924396
1.747106,1.908278
1.740659,1.909890
1.732601,1.933260
1.722930,1.927619
1.727766,1.920366
1.718901,1.930843
1.739854,1.937289
1.738242,1.950183
1.743883,1.944542
1.725348,1.895385
1.714066,1.920366
1.739048,1.921172
1.739048,1.921172
1.735018,1.961465
1.739854,1.914725
1.705202,1.914725
1.725348,1.916337
1.739854,1.955018
1.736630,1.942124
1.747106,1.940513
1.719707,1.938901
1.726154,1.902637
1.714066,1.908278
1.711648,1.890549
1.722930,1.914725
1.739048,1.928425
1.706007,1.907472
1.695531,1.899414
1.718095,1.940513
1.692308,1.909084
1.735018,1.926007
1.725348,1.934872
1.703590,1.907472
1.698755,1.883297
1.714066,1.915531
1.710842,1.894579
1.710842,1.907472
1.753553,1.925201
1.712454,1.901832
1.695531,1.900220
1.711648,1.920366
1.713260,1.890549
1.699560,1.942124
1.727766,1.904249
1.710037,1.868791
1.689890,1.903443
1.701172,1.921172
1.703590,1.920366
1.693114,1.929231
1.712454,1.894579
1.699560,1.876850
1.682637,1.907472
1.693114,1.885714
1.689084,1.903443
1.691502,1.919560
1.685055,1.906667
1.680220,1.892967
1.678608,1.925201
1.696337,1.921978
1.697143,1.899414
1.714066,1.883297
1.686667,1.905055
1.661685,1.860733
1.679414,1.895385
1.688278,1.913919
1.705202,1.908278
1.708425,1.934066
1.695531,1.885714
1.662491,1.894579
1.695531,1.892967
1.679414,1.876850
1.690696,1.903443
1.721319,1.907472
1.682637,1.913114
1.674579,1.894579
1.708425,1.903443
1.670549,1.907472
1.680220,1.905055
1.701172,1.907472
1.677802,1.894579
1.671355,1.863956
1.697143,1.876044
1.687473,1.920366
1.689084,1.905055
1.701978,1.920366
1.672967,1.885714
1.655238,1.888938
1.688278,1.894579
1.685861,1.854286
1.663297,1.910696
1.688278,1.907472
1.660073,1.900220
1.656044,1.885714
1.661685,1.896996
1.650403,1.907472
1.684249,1.912308
1.687473,1.919560
1.661685,1.868791
1.634286,1.888132
1.667326,1.894579
1.683443,1.920366
1.679414,1.918755
1.687473,1.917949
1.670549,1.907472
1.666520,1.905055
1.676190,1.880073
1.664908,1.909890
1.673773,1.924396
1.685055,1.908278
1.636703,1.908278
1.657656,1.879267
1.679414,1.914725
1.643150,1.911502
1.676190,1.923590
1.660073,1.880879
1.654432,1.868791
1.664908,1.866374
1.669744,1.879267
1.688278,1.899414
1.688278,1.920366
1.669744,1.881685
1.638315,1.894579
1.660073,1.907472
1.666520,1.919560
1.658462,1.894579
1.682637,1.911502
1.670549,1.885714
1.658462,1.903443
1.680220,1.909084
1.679414,1.924396
1.676190,1.920366
1.702784,1.920366
1.693114,1.896191
1.674579,1.896996
1.701172,1.907472
1.685861,1.904249
1.687473,1.931648
1.711648,1.918755
1.686667,1.909890
1.689084,1.901832
1.690696,1.913919
1.701172,1.924396
1.701172,1.938095
1.706813,1.917949
1.676996,1.903443
1.687473,1.907472
1.690696,1.907472
1.687473,1.913114
1.713260,1.928425
1.715678,1.935678
1.699560,1.905055
1.689084,1.897802
1.702784,1.909084
1.710037,1.912308
1.732601,1.958242
1.725348,1.944542
1.697949,1.921172
1.714066,1.935678
1.715678,1.927619
1.719707,1.919560
1.718095,1.950989
1.703590,1.921172
1.705202,1.911502
1.721319,1.931648
1.724542,1.934066
1.715678,1.945348
1.739854,1.938901
1.715678,1.925201
1.713260,1.921172
1.710842,1.931648
1.701978,1.928425
1.715678,1.925201
1.746300,1.934872
1.709231,1.930843
1.714066,1.909890
1.708425,1.918755
1.702784,1.934872
1.722930,1.950183
1.727766,1.924396
1.711648,1.920366
1.701172,1.915531
1.735824,1.921172
1.721319,1.909890
1.713260,1.940513
1.735824,1.946154
1.715678,1.917949
1.700366,1.917949
1.703590,1.921172
1.712454,1.905861
1.712454,1.929231
1.732601,1.917949
1.701172,1.909890
1.699560,1.934872
1.714066,1.933260
1.714066,1.914725
1.714872,1.950989
1.699560,1.919560
1.710037,1.911502
1.701978,1.946154
1.702784,1.914725
1.716483,1.946154
1.725348,1.955824
1.708425,1.934066
1.672967,1.917949
1.711648,1.929231
1.714066,1.918755
1.708425,1.922784
1.735018,1.945348
1.714066,1.932454
1.685861,1.895385
1.701172,1.916337
1.686667,1.916337
1.694725,1.918755
1.688278,1.934066
1.697143,1.920366
1.688278,1.873626
1.685861,1.915531
1.688278,1.918755
1.699560,1.922784
1.710037,1.945348
1.688278,1.912308
1.682637,1.922784
1.674579,1.920366
1.697143,1.921172
1.689084,1.910696
1.708425,1.907472
1.682637,1.911502
1.670549,1.908278
1.689084,1.923590
1.689890,1.907472
1.690696,1.931648
1.711648,1.923590
1.666520,1.932454
1.670549,1.905861
1.687473,1.919560
1.676190,1.906667
1.687473,1.937289
1.683443,1.925201
1.674579,1.896191
1.666520,1.908278
1.689890,1.911502
1.672161,1.929231
1.680220,1.934066
1.672967,1.927619
1.676996,1.894579
1.664103,1.914725
1.683443,1.917949
1.678608,1.922784
1.701172,1.926007
1.696337,1.914725
1.662491,1.894579
1.672161,1.912308
1.674579,1.885714
1.689890,1.920366
1.696337,1.946154
1.664908,1.908278
1.668132,1.896191
1.679414,1.908278
1.689084,1.920366
1.684249,1.929231
1.712454,1.935678
1.671355,1.907472
1.662491,1.905861
1.667326,1.913919
1.693114,1.918755
1.677802,1.910696
1.701172,1.946154
1.685861,1.920366
1.644762,1.885714
1.689084,1.928425
1.674579,1.905861
1.695531,1.909890
1.689890,1.921172
1.684249,1.907472
1.659267,1.907472
1.676996,1.920366
1.672967,1.934872
1.677802,1.918755
1.692308,1.932454
1.674579,1.868791
1.667326,1.892161
1.668132,1.906667
1.688278,1.917949
1.678608,1.934872
1.677802,1.909084
1.669744,1.905055
1.656850,1.899414
1.682637,1.905861
1.679414,1.896191
1.684249,1.905861
1.689890,1.909890
1.681026,1.896996
1.672967,1.914725
1.664103,1.918755
1.685861,1.898608
1.693114,1.921172
1.668132,1.899414
1.631868,1.893773
1.657656,1.901832
1.673773,1.900220
1.684249,1.924396
1.688278,1.921172
1.675385,1.913114
1.640733,1.898608
1.660073,1.908278
1.664908,1.907472
1.670549,1.909084
1.684249,1.915531
1.677802,1.907472
1.658462,1.890549
1.651209,1.906667
1.660879,1.892161
1.672967,1.912308
1.700366,1.907472
1.662491,1.905055
1.636703,1.899414
1.682637,1.873626
1.663297,1.896996
1.664908,1.895385
1.681026,1.906667
1.667326,1.895385
1.628645,1.894579
1.658462,1.907472
1.656850,1.908278
1.651209,1.890549
1.664908,1.913114
1.657656,1.893773
1.636703,1.883297
1.655238,1.898608
1.671355,1.909890
1.654432,1.905861
1.673773,1.898608
1.641539,1.878461
1.654432,1.892967
1.652015,1.894579
1.645568,1.891355
1.661685,1.890549
1.676190,1.900220
1.637509,1.868791
1.640733,1.895385
1.661685,1.903443
1.660879,1.901832
1.664103,1.900220
1.668132,1.880073
1.642344,1.878461
1.662491,1.892161
1.661685,1.888938
1.650403,1.891355
1.662491,1.906667
1.656850,1.895385
1.637509,1.885714
1.640733,1.880879
1.654432,1.900220
1.654432,1.880073
1.661685,1.902637
1.663297,1.877656
1.627839,1.885714
1.658462,1.901832
1.632674,1.892967
1.635897,1.894579
1.663297,1.919560
1.654432,1.878461
1.625421,1.874432
1.656044,1.889744
1.671355,1.893773
1.654432,1.882491
1.681026,1.881685
1.666520,1.868791
1.626227,1.866374
1.640733,1.883297
1.652820,1.895385
1.650403,1.880879
1.681026,1.889744
1.660073,1.892967
1.645568,1.880073
1.656850,1.880073
1.661685,1.892967
1.662491,1.885714
1.676996,1.890549
1.662491,1.867985
1.639927,1.866374
1.663297,1.869597
1.677802,1.884103
1.681026,1.896191
1.682637,1.878461
1.644762,1.869597
1.663297,1.894579
1.685861,1.904249
1.683443,1.916337
1.696337,1.907472
1.674579,1.883297
1.674579,1.894579
1.656850,1.907472
1.692308,1.899414
1.693114,1.916337
1.708425,1.915531
1.692308,1.914725
1.668132,1.903443
1.701172,1.906667
1.695531,1.916337
1.713260,1.909084
1.722930,1.924396
1.692308,1.905055
1.671355,1.898608
1.701172,1.920366
1.695531,1.899414
1.701172,1.908278
1.714872,1.905861
1.693919,1.911502
1.700366,1.909890
1.714066,1.915531
1.710037,1.907472
1.714066,1.915531
1.721319,1.931648
1.714066,1.920366
1.711648,1.896191
1.714066,1.925201
1.710842,1.913114
1.737436,1.932454
1.734212,1.938095
1.714066,1.909890
1.698755,1.909084
1.718095,1.918755
1.719707,1.928425
1.718901,1.925201
1.722930,1.927619
1.704396,1.925201
1.693919,1.915531
1.693114,1.909890
1.727766,1.908278
1.714872,1.948571
1.731795,1.912308
1.700366,1.891355
1.698755,1.916337
1.706813,1.921172
1.718095,1.916337
1.702784,1.938095
1.714066,1.921172
1.691502,1.884908
1.699560,1.924396
1.700366,1.914725
1.709231,1.928425
1.734212,1.924396
1.703590,1.914725
1.693114,1.869597
1.685861,1.929231
1.697143,1.914725
1.702784,1.900220
1.714066,1.917143
1.708425,1.907472
1.668132,1.867985
1.695531,1.888938
1.701978,1.903443
1.689084,1.894579
1.701172,1.929231
1.690696,1.896191
1.676996,1.879267
1.686667,1.892967
1.697949,1.895385
1.697949,1.923590
1.708425,1.920366
1.688278,1.902637
1.674579,1.899414
1.676190,1.919560
1.675385,1.919560
1.685861,1.908278
1.701978,1.919560
1.698755,1.887326
1.670549,1.901832
1.678608,1.900220
1.684249,1.894579
1.674579,1.899414
1.706813,1.878461
1.682637,1.893773
1.676996,1.894579
1.689084,1.901832
1.671355,1.892161
1.701172,1.912308
1.691502,1.907472
1.664908,1.895385
1.673773,1.898608
1.695531,1.876850
1.682637,1.894579
1.690696,1.909084
1.682637,1.880879
1.664103,1.876044
1.675385,1.900220
1.690696,1.905861
1.665714,1.882491
1.697143,1.920366
1.662491,1.892161
1.656850,1.872820
1.689084,1.914725
1.688278,1.907472
1.685055,1.898608
1.702784,1.921172
1.684249,1.897802
1.672967,1.888938
1.682637,1.894579
1.677802,1.888132
1.685861,1.909084
1.689084,1.908278
1.683443,1.894579
1.662491,1.898608
1.654432,1.907472
1.672967,1.895385
1.674579,1.898608
1.687473,1.908278
1.665714,1.898608
1.656850,1.889744
1.674579,1.889744
1.657656,1.896191
1.676190,1.892161
1.676190,1.898608
1.659267,1.870403
1.639121,1.880879
1.657656,1.893773
1.666520,1.894579
1.670549,1.896996
1.698755,1.881685
1.645568,1.871209
1.660073,1.880073
1.683443,1.883297
1.662491,1.890549
1.677802,1.902637
1.669744,1.896191
1.662491,1.856703
1.647179,1.900220
1.664103,1.880879
1.657656,1.882491
1.687473,1.889744
1.658462,1.880879
1.644762,1.875238
1.650403,1.895385
1.662491,1.894579
1.662491,1.877656
1.676996,1.902637
1.650403,1.881685
1.633480,1.861538
1.653626,1.892967
1.652015,1.879267
1.670549,1.873626
1.662491,1.902637
1.653626,1.876044
1.620586,1.886520
1.659267,1.868791
1.667326,1.885714
1.661685,1.872820
1.660073,1.906667
1.652015,1.857509
1.634286,1.871209
1.654432,1.868791
1.656850,1.896996
1.638315,1.901832
1.676996,1.894579
1.645568,1.892161
1.627839,1.879267
1.651209,1.896996
1.653626,1.884908
1.652015,1.880879
1.674579,1.892967
1.650403,1.856703
1.627839,1.850256
1.650403,1.863956
1.662491,1.867180
1.634286,1.892967
1.676190,1.880073
1.655238,1.870403
1.640733,1.876850
1.651209,1.866374
1.638315,1.879267
1.660879,1.876850
1.662491,1.867180
1.635092,1.855897
1.634286,1.884103
1.623004,1.876044
1.637509,1.871209
1.658462,1.892967
1.654432,1.867985
1.623810,1.859927
1.623810,1.867180
1.638315,1.869597
1.643956,1.879267
1.635092,1.907472
1.640733,1.884103
1.640733,1.880073
1.619780,1.866374
1.654432,1.873626
1.625421,1.883297
1.652820,1.882491
1.643956,1.872015
1.627839,1.853480
1.623810,1.893773
1.621392,1.880073
1.652015,1.864762
1.637509,1.899414
1.635092,1.858315
1.598828,1.867180
1.638315,1.857509
1.638315,1.867985
1.626227,1.871209
1.670549,1.890549
1.611722,1.869597
1.628645,1.841392
1.616557,1.869597
1.627033,1.855897
1.622198,1.857509
1.640733,1.868791
1.618168,1.850256
1.605275,1.842198
1.636703,1.837363
1.627839,1.861538
1.620586,1.873626
1.644762,1.866374
1.616557,1.855092
1.612527,1.855092
1.627839,1.857509
1.623810,1.864762
1.618974,1.889744
1.635897,1.865568
1.627839,1.855092
1.610916,1.845421
1.635897,1.855092
1.636703,1.868791
1.641539,1.887326
1.634286,1.858315
1.609304,1.848645
1.628645,1.881685
1.636703,1.880879
1.634286,1.867180
1.671355,1.892967
1.653626,1.868791
1.636703,1.855897
1.658462,1.867180
1.656850,1.869597
1.637509,1.866374
1.662491,1.877656
1.650403,1.886520
1.639121,1.872820
1.660073,1.867180
1.654432,1.884103
1.656850,1.876044
1.671355,1.907472
1.661685,1.879267
1.641539,1.879267
1.663297,1.880073
1.643956,1.867180
1.669744,1.892967
1.685861,1.888938
1.653626,1.882491
1.655238,1.866374
1.654432,1.891355
1.668938,1.894579
1.650403,1.907472
1.686667,1.892967
1.660879,1.868791
1.636703,1.884103
1.672967,1.880073
1.674579,1.896191
1.664103,1.907472
1.684249,1.896996
1.668132,1.871209
1.677802,1.886520
1.676996,1.864762
1.671355,1.902637
1.677802,1.910696
1.677802,1.905861
1.672161,1.902637
1.676190,1.896191
1.685861,1.892967
1.687473,1.890549
1.691502,1.921172
1.688278,1.905055
1.651209,1.893773
1.666520,1.893773
1.688278,1.901832
1.686667,1.906667
1.700366,1.907472
1.667326,1.909890
1.654432,1.883297
1.676996,1.872820
1.692308,1.881685
1.645568,1.903443
1.701978,1.903443
1.673773,1.885714
1.662491,1.883297
1.668132,1.907472
1.673773,1.894579
1.678608,1.907472
1.670549,1.915531
1.660073,1.893773
1.660073,1.886520
1.658462,1.899414
1.669744,1.901832
1.660879,1.903443
1.666520,1.907472
1.663297,1.889744
1.643956,1.883297
1.655238,1.907472
1.660073,1.892161
1.644762,1.868791
1.674579,1.892161
1.634286,1.879267
1.626227,1.868791
1.670549,1.887326
1.658462,1.879267
1.652015,1.892967
1.667326,1.891355
1.636703,1.876850
1.643956,1.877656
1.635092,1.894579
1.636703,1.896191
1.663297,1.918755
1.672161,1.889744
1.652015,1.872820
1.633480,1.871209
1.660073,1.903443
1.667326,1.894579
1.655238,1.894579
1.659267,1.893773
1.652015,1.869597
1.664908,1.882491
1.658462,1.883297
1.657656,1.888938
1.679414,1.895385
1.658462,1.885714
1.631062,1.872820
1.657656,1.868791
1.656850,1.885714
1.640733,1.867985
1.674579,1.896996
1.642344,1.896996
1.642344,1.851868
1.650403,1.878461
1.652015,1.874432
1.644762,1.894579
1.669744,1.882491
1.621392,1.889744
1.623810,1.863956
1.662491,1.902637
1.635897,1.893773
1.672967,1.893773
1.661685,1.877656
1.650403,1.868791
1.650403,1.875238
1.650403,1.874432
1.623810,1.906667
1.636703,1.895385
1.664908,1.896191
1.635092,1.903443
1.635092,1.877656
1.628645,1.857509
1.647179,1.894579
1.639121,1.909084
1.660073,1.894579
1.623810,1.888938
1.627033,1.894579
1.651209,1.896191
1.631868,1.876850
1.643956,1.892161
1.642344,1.890549
1.634286,1.874432
1.622198,1.892161
1.627839,1.905861
1.629451,1.871209
1.645568,1.895385
1.640733,1.899414
1.621392,1.868791
1.617363,1.894579
1.638315,1.884103
1.636703,1.867985
1.657656,1.894579
1.624615,1.876044
1.636703,1.859121
1.623004,1.886520
1.636703,1.886520
1.638315,1.882491
1.658462,1.906667
1.636703,1.884103
1.625421,1.869597
1.624615,1.894579
1.627839,1.896191
1.632674,1.894579
1.658462,1.896191
1.631868,1.892161
1.602051,1.863956
1.633480,1.871209
1.635897,1.892161
1.623810,1.892967
1.645568,1.883297
1.627839,1.884103
1.615751,1.848645
1.624615,1.898608
1.610916,1.873626
1.623810,1.888938
1.638315,1.892967
1.602857,1.876044
1.610916,1.868791
1.628645,1.894579
1.620586,1.868791
1.607692,1.886520
1.623004,1.894579
1.611722,1.871209
1.597216,1.869597
1.610916,1.869597
1.622198,1.869597
1.618974,1.900220
1.624615,1.861538
1.605275,1.857509
1.598022,1.892161
1.616557,1.864762
1.616557,1.894579
1.619780,1.884103
1.629451,1.867985
1.589963,1.863150
1.609304,1.868791
1.610916,1.866374
1.606081,1.853480
1.629451,1.889744
1.602051,1.852674
1.582711,1.860733
1.628645,1.867180
1.592381,1.844615
1.598828,1.866374
1.632674,1.892967
1.608498,1.863956
1.597216,1.865568
1.614945,1.857509
1.603663,1.863150
1.611722,1.867985
1.614945,1.868791
1.618168,1.872820
1.588352,1.855897
1.601245,1.868791
1.602051,1.888938
1.613333,1.863150
1.608498,1.855092
1.579487,1.851868
1.598828,1.844615
1.597216,1.861538
1.614139,1.866374
1.612527,1.881685
1.614945,1.855092
1.595604,1.859121
1.585128,1.847839
1.609304,1.867180
1.598022,1.854286
1.610916,1.876044
1.616557,1.861538
1.592381,1.843004
1.576264,1.855092
1.585934,1.863956
1.592381,1.854286
1.606081,1.879267
1.591575,1.859927
1.587546,1.834139
1.573846,1.860733
1.597216,1.880879
1.598022,1.837363
1.602051,1.863956
1.590769,1.861538
1.585128,1.845421
1.577070,1.859927
1.596410,1.863150
1.602051,1.837363
1.596410,1.850256
1.597216,1.852674
1.574652,1.843809
1.598022,1.843004
1.580293,1.859927
1.593187,1.844615
1.598828,1.853480
1.615751,1.827692
1.585128,1.839780
1.587546,1.827692
1.590769,1.857509
1.586740,1.837363
1.612527,1.876044
1.599634,1.820440
1.567399,1.846227
1.598022,1.853480
1.600440,1.847839
1.609304,1.851868
1.596410,1.855092
1.610916,1.843004
1.585128,1.863150
1.602051,1.863150
1.610916,1.866374
1.608498,1.866374
1.627033,1.855897
1.589157,1.859927
1.603663,1.844615
1.623004,1.833333
1.618168,1.864762
1.606081,1.859927
1.617363,1.867985
1.586740,1.863956
1.600440,1.846227
1.602857,1.844615
1.602857,1.861538
1.621392,1.854286
1.610110,1.857509
1.601245,1.868791
1.598022,1.869597
1.631062,1.859927
1.616557,1.874432
1.621392,1.872820
1.593187,1.854286
1.610916,1.837363
1.610916,1.856703
1.631868,1.867180
1.612527,1.868791
1.627839,1.850256
1.621392,1.856703
1.595604,1.855092
1.613333,1.864762
1.609304,1.857509
1.614139,1.860733
1.618168,1.851868
1.598828,1.868791
1.595604,1.857509
1.613333,1.863956
1.610916,1.867985
1.598828,1.873626
1.616557,1.867985
1.598022,1.835751
1.602051,1.856703
1.599634,1.858315
1.610916,1.845421
1.614945,1.881685
1.622198,1.876044
1.599634,1.875238
1.598022,1.868791
1.616557,1.868791
1.606081,1.843004
1.607692,1.867985
1.602857,1.873626
1.594799,1.864762
1.606081,1.853480
1.605275,1.851868
1.606887,1.855897
1.587546,1.873626
1.599634,1.851062
1.579487,1.853480
1.598022,1.848645
1.615751,1.861538
1.598022,1.848645
1.609304,1.868791
1.590769,1.865568
1.579487,1.843004
1.588352,1.858315
1.592381,1.863150
1.585128,1.847839
1.596410,1.863150
1.598022,1.838169
1.571429,1.851868
1.593993,1.873626
1.585128,1.840586
1.590769,1.860733
1.608498,1.868791
1.588352,1.854286
1.569011,1.855897
1.589963,1.854286
1.595604,1.865568
1.593993,1.848645
1.598022,1.857509
1.583516,1.848645
1.568205,1.838974
1.599634,1.863956
1.605275,1.859927
1.603663,1.868791
1.605275,1.867985
1.598022,1.853480
1.576264,1.847033
1.598022,1.846227
1.605275,1.859927
1.598022,1.855897
1.589157,1.856703
1.587546,1.828498
1.587546,1.851868
1.598022,1.851868
1.606887,1.856703
1.598022,1.855092
1.607692,1.824469
1.584322,1.857509
1.583516,1.856703
1.589963,1.847839
1.584322,1.834139
1.593993,1.873626
1.570623,1.856703
1.580293,1.845421
1.559341,1.841392
1.576264,1.851868
1.585934,1.851062
1.582711,1.871209
1.571429,1.843004
1.584322,1.830110
1.581099,1.861538
1.585934,1.850256
1.591575,1.853480
1.577875,1.855897
1.597216,1.834945
1.560147,1.847033
1.563370,1.853480
1.585128,1.858315
1.574652,1.843004
1.584322,1.842198
1.569817,1.847839
1.567399,1.853480
1.581099,1.846227
1.594799,1.837363
1.576264,1.843809
1.598828,1.847033
1.575458,1.848645
1.576264,1.846227
1.577070,1.838169
1.585128,1.839780
1.569011,1.831722
1.585128,1.853480
1.573040,1.855897
1.576264,1.821245
1.585128,1.843004
1.577070,1.847033
1.579487,1.838974
1.564176,1.829304
1.579487,1.838974
1.569817,1.837363
1.544835,1.832528
1.566593,1.847033
1.582711,1.843004
1.580293,1.802711
1.556923,1.837363
1.555311,1.817216
1.579487,1.830916
1.576264,1.843004
1.571429,1.867985
1.582711,1.847033
1.563370,1.829304
1.553700,1.827692
1.547253,1.838169
1.579487,1.844615
1.577070,1.856703
1.574652,1.838169
1.575458,1.834945
1.548059,1.842198
1.571429,1.856703
1.564982,1.838169
1.585934,1.830916
1.549670,1.835751
1.559341,1.837363
1.559341,1.829304
1.559341,1.847033
1.550476,1.843004
1.576264,1.850256
1.560952,1.821245
1.559341,1.834139
1.569817,1.843809
1.554505,1.842198
1.549670,1.856703
1.582711,1.843004
1.556923,1.832528
1.547253,1.852674
1.552894,1.853480
1.548059,1.832528
1.544835,1.834139
1.554505,1.850256
1.551282,1.853480
1.532747,1.832528
1.528718,1.859927
1.547253,1.842198
1.519048,1.843004
1.548864,1.833333
1.537582,1.844615
1.523883,1.843004
1.532747,1.840586
1.535971,1.843004
1.535165,1.850256
1.550476,1.851062
1.538388,1.844615
1.524689,1.838974
1.541612,1.847033
1.528718,1.855897
1.519048,1.869597
1.526300,1.848645
1.523883,1.833333
1.507766,1.833333
1.533553,1.834945
1.529524,1.856703
1.527106,1.853480
1.533553,1.822857
1.519048,1.826081
1.507766,1.839780
1.522271,1.843809
1.512601,1.844615
1.527912,1.845421
1.530330,1.827692
1.498901,1.825275
1.507766,1.847033
1.519048,1.822051
1.521465,1.834139
1.535165,1.843004
1.509377,1.839780
1.508571,1.838974
1.498901,1.847033
1.523077,1.838974
1.498901,1.842198
1.533553,1.856703
1.507766,1.834139
1.486007,1.816410
1.495678,1.834945
1.507766,1.834945
1.531941,1.831722
1.537582,1.843809
1.507766,1.815604
1.510183,1.832528
1.515018,1.855897
1.529524,1.826081
1.533553,1.831722
1.532747,1.847033
1.515018,1.828498
1.510183,1.818022
1.518242,1.832528
1.515824,1.838169
1.507766,1.843004
1.521465,1.821245
1.494872,1.829304
1.502125,1.825275
1.534359,1.829304
1.523077,1.835751
1.523883,1.854286
1.514212,1.843004
1.523883,1.840586
1.525494,1.842198
1.524689,1.838169
1.515018,1.847033
1.533553,1.860733
1.532747,1.853480
1.526300,1.854286
1.522271,1.856703
1.532747,1.843809
1.535165,1.854286
1.548864,1.872820
1.527106,1.838169
1.546447,1.847033
1.531136,1.866374
1.548864,1.867985
1.531136,1.840586
1.552088,1.873626
1.533553,1.853480
1.520659,1.838169
1.541612,1.853480
1.558535,1.847033
1.542418,1.843809
1.559341,1.881685
1.532747,1.851062
1.534359,1.840586
1.538388,1.866374
1.535971,1.855092
1.535165,1.856703
1.564176,1.866374
1.540806,1.855092
1.523077,1.832528
1.559341,1.859927
1.546447,1.859927
1.556117,1.865568
1.579487,1.868791
1.535971,1.854286
1.546447,1.851062
1.544029,1.850256
1.570623,1.871209
1.558535,1.872820
1.560147,1.868791
1.557729,1.859927
1.544029,1.868791
1.547253,1.866374
1.550476,1.868791
1.574652,1.867180
1.561758,1.847033
1.557729,1.834945
1.529524,1.851868
1.537582,1.859121
1.552088,1.867985
1.566593,1.882491
1.547253,1.851062
1.546447,1.851868
1.545641,1.843004
1.547253,1.867985
1.546447,1.868791
1.552088,1.882491
1.537582,1.855092
1.537582,1.845421
1.528718,1.852674
1.550476,1.864762
1.524689,1.868791
1.569817,1.872820
1.541612,1.843809
1.510183,1.858315
1.540806,1.843809
1.523077,1.857509
1.531136,1.861538
1.536777,1.868791
1.548059,1.843004
1.516630,1.842198
1.529524,1.845421
1.537582,1.870403
1.548864,1.872820
1.532747,1.851868
1.540806,1.838974
1.544029,1.838169
1.529524,1.849451
1.536777,1.855092
1.529524,1.858315
1.541612,1.861538
1.529524,1.853480
1.507766,1.845421
1.521465,1.857509
1.520659,1.857509
1.547253,1.864762
1.519853,1.866374
1.518242,1.853480
1.529524,1.843809
1.526300,1.857509
1.529524,1.857509
1.539194,1.869597
1.538388,1.857509
1.534359,1.843004
1.532747,1.842198
1.524689,1.864762
1.525494,1.837363
1.535971,1.884103
1.542418,1.866374
1.537582,1.859121
1.532747,1.861538
1.551282,1.858315
1.525494,1.856703
1.539194,1.872015
1.535971,1.858315
1.524689,1.843004
1.511795,1.847839
1.533553,1.847839
1.519853,1.871209
1.544029,1.876044
1.540806,1.870403
1.534359,1.837363
1.523883,1.857509
1.544835,1.868791
1.533553,1.857509
1.557729,1.878461
1.531941,1.854286
1.510183,1.847033
1.517436,1.861538
1.527912,1.857509
1.531941,1.859927
1.541612,1.867985
1.523077,1.837363
1.519048,1.851868
1.546447,1.855897
1.538388,1.844615
1.534359,1.857509
1.528718,1.851062
1.534359,1.847033
1.522271,1.858315
1.528718,1.874432
1.527912,1.855897
1.517436,1.859927
1.547253,1.868791
1.527912,1.863150
1.522271,1.843809
1.515018,1.857509
1.519853,1.854286
1.523077,1.867180
1.526300,1.866374
1.496484,1.863150
1.502930,1.855897
1.503736,1.847839
1.531941,1.850256
1.512601,1.843809
1.515824,1.854286
1.512601,1.848645
1.507766,1.871209
1.527912,1.843809
1.507766,1.856703
1.518242,1.874432
1.507766,1.874432
1.479560,1.848645
1.494872,1.854286
1.513407,1.866374
1.502125,1.868791
1.519048,1.870403
1.520659,1.856703
1.482784,1.832528
1.508571,1.844615
1.492454,1.856703
1.493260,1.854286
1.523077,1.859927
1.497289,1.877656
1.497289,1.840586
1.498901,1.863150
1.490842,1.878461
1.515018,1.846227
1.512601,1.872820
1.505348,1.855897
1.500513,1.843004
1.523077,1.845421
1.495678,1.861538
1.507766,1.865568
1.515824,1.873626
1.505348,1.873626
1.481978,1.855897
1.503736,1.856703
1.496484,1.843809
1.502125,1.858315
1.514212,1.868791
1.486007,1.848645
1.487619,1.867985
1.493260,1.867180
1.499707,1.872820
1.505348,1.870403
1.509377,1.880879
1.503736,1.867985
1.477143,1.863150
1.500513,1.879267
1.498901,1.867985
1.508571,1.847839
1.498901,1.874432
1.506154,1.863956
1.494872,1.860733
1.494872,1.855897
1.487619,1.855092
1.498901,1.871209
1.503736,1.835751
1.486813,1.833333
1.481172,1.843004
1.508571,1.857509
1.505348,1.867180
1.507766,1.844615
1.494066,1.858315
1.498095,1.826886
1.485201,1.869597
1.508571,1.842198
1.498901,1.867180
1.517436,1.860733
1.492454,1.844615
1.481172,1.818828
1.471502,1.859121
1.490842,1.855092
1.515018,1.856703
1.518242,1.865568
1.483590,1.854286
1.487619,1.847033
1.487619,1.865568
1.513407,1.854286
1.502125,1.843004
1.506154,1.850256
1.507766,1.839780
1.496484,1.851062
1.495678,1.853480
1.506154,1.843004
1.494872,1.855092
1.507766,1.855897
1.502125,1.860733
1.494872,1.866374
1.507766,1.834945
1.502930,1.839780
1.510183,1.847033
1.516630,1.856703
1.502125,1.839780
1.490842,1.847839
1.509377,1.843809
1.511795,1.854286
1.530330,1.868791
1.511795,1.851868
1.505348,1.858315
1.507766,1.844615
1.519853,1.858315
1.540806,1.856703
1.523077,1.876850
1.544835,1.872820
1.531136,1.859121
1.525494,1.876044
1.531941,1.872820
1.546447,1.886520
1.537582,1.889744
1.551282,1.870403
1.533553,1.867985
1.547253,1.880879
1.537582,1.884103
1.555311,1.893773
1.562564,1.891355
1.544835,1.868791
1.552088,1.876850
1.546447,1.884103
1.558535,1.863150
1.560147,1.892161
1.569817,1.898608
1.559341,1.885714
1.569817,1.868791
1.563370,1.885714
1.577070,1.905055
1.560147,1.894579
1.576264,1.894579
1.573846,1.886520
1.564176,1.885714
1.573846,1.889744
1.585128,1.868791
1.560147,1.901832
1.597216,1.895385
1.560147,1.889744
1.576264,1.872015
1.585128,1.851868
1.582711,1.892161
1.589963,1.896996
1.581905,1.890549
1.577875,1.892161
1.567399,1.884103
1.579487,1.894579
1.573040,1.895385
1.581099,1.888938
1.585128,1.900220
1.576264,1.894579
1.585128,1.890549
1.596410,1.871209
1.585128,1.910696
1.585128,1.911502
1.570623,1.880879
1.582711,1.876044
1.558535,1.892967
1.585128,1.885714
1.558535,1.880879
1.576264,1.906667
1.589963,1.877656
1.561758,1.872820
1.575458,1.884103
1.578681,1.873626
1.571429,1.868791
1.566593,1.895385
1.564982,1.870403
1.573040,1.878461
1.560952,1.894579
1.584322,1.896996
1.573040,1.867180
1.585128,1.880879
1.567399,1.896191
1.564982,1.883297
1.559341,1.876044
1.569011,1.894579
1.559341,1.857509
1.574652,1.886520
1.565788,1.882491
1.564176,1.888938
1.580293,1.870403
1.583516,1.887326
1.561758,1.899414
1.585128,1.901026
1.556923,1.868791
1.559341,1.868791
1.561758,1.873626
1.549670,1.900220
1.553700,1.877656
1.558535,1.907472
1.551282,1.872820
1.572234,1.868791
1.560147,1.884103
1.554505,1.871209
1.563370,1.872820
1.560952,1.882491
1.555311,1.879267
1.558535,1.873626
1.567399,1.853480
1.554505,1.880073
1.568205,1.867180
1.582711,1.890549
1.547253,1.863150
1.547253,1.867985
1.555311,1.868791
1.572234,1.872015
1.544835,1.894579
1.552088,1.887326
1.551282,1.876044
1.559341,1.874432
1.563370,1.888938
1.546447,1.879267
1.589963,1.892967
1.561758,1.877656
1.560952,1.888938
1.563370,1.878461
1.560147,1.863150
1.569817,1.868791
1.571429,1.902637
1.561758,1.879267
1.557729,1.858315
1.551282,1.867180
1.555311,1.880879
1.561758,1.877656
1.576264,1.879267
1.556117,1.863956
1.557729,1.869597
1.564176,1.885714
1.576264,1.872820
1.559341,1.875238
1.567399,1.868791
1.544835,1.866374
1.532747,1.867985
1.556923,1.872820
1.573040,1.873626
1.556117,1.864762
1.556923,1.863150
1.540806,1.881685
1.533553,1.867180
1.529524,1.877656
1.551282,1.867985
1.545641,1.860733
1.537582,1.844615
1.567399,1.868791
1.568205,1.867985
1.564176,1.876850
1.560147,1.871209
1.552088,1.884908
1.556923,1.863150
1.533553,1.853480
1.533553,1.858315
1.542418,1.867985
1.525494,1.871209
1.541612,1.867985
1.530330,1.863150
1.547253,1.841392
1.527912,1.859927
1.539194,1.877656
1.542418,1.879267
1.556117,1.882491
1.524689,1.845421
1.523883,1.867180
1.531941,1.855092
1.527912,1.879267
1.534359,1.849451
1.546447,1.868791
1.541612,1.852674
1.532747,1.863956
1.541612,1.868791
1.524689,1.868791
1.533553,1.869597
1.560952,1.866374
1.534359,1.865568
1.531136,1.859927
1.535165,1.867985
1.542418,1.863150
1.526300,1.861538
1.553700,1.865568
1.533553,1.855092
1.532747,1.872820
1.546447,1.863150
1.533553,1.844615
1.527912,1.869597
1.540806,1.866374
1.539194,1.874432
1.525494,1.855897
1.533553,1.863956
1.537582,1.855897
1.546447,1.871209
1.525494,1.856703
1.516630,1.868791
1.520659,1.856703
1.516630,1.859927
1.535165,1.851868
1.533553,1.862344
1.535971,1.852674
1.531941,1.859927
1.512601,1.852674
1.526300,1.863150
1.515018,1.843004
1.533553,1.861538
1.531941,1.850256
1.532747,1.834139
1.523883,1.857509
1.543224,1.852674
1.523077,1.858315
1.533553,1.848645
1.522271,1.864762
1.518242,1.859927
1.515018,1.867985
1.523077,1.856703
1.533553,1.841392
1.535971,1.867180
1.510989,1.855897
1.509377,1.845421
1.512601,1.854286
1.531941,1.879267
1.531941,1.858315
1.542418,1.853480
1.522271,1.856703
1.516630,1.840586
1.515824,1.855897
1.531136,1.850256
1.530330,1.854286
1.546447,1.855092
1.519853,1.847839
1.511795,1.840586
1.516630,1.855897
1.531136,1.843809
1.535971,1.853480
1.546447,1.864762
1.540806,1.858315
1.493260,1.842198
1.515018,1.843809
1.526300,1.838169
1.520659,1.864762
1.534359,1.856703
1.521465,1.835751
1.520659,1.843004
1.531941,1.855092
1.523077,1.843004
1.521465,1.841392
1.529524,1.851062
1.535165,1.854286
1.531941,1.851868
1.532747,1.857509
1.526300,1.857509
1.518242,1.868791
1.533553,1.843004
1.523077,1.847033
1.523883,1.822051
1.537582,1.843004
1.535971,1.863956
1.533553,1.847033
1.533553,1.848645
1.533553,1.856703
1.544029,1.858315
1.538388,1.855897
1.533553,1.876044
1.565788,1.870403
1.544029,1.857509
1.554505,1.830916
1.548864,1.855897
1.551282,1.855897
1.551282,1.879267
1.585128,1.884908
1.544029,1.879267
1.552894,1.873626
1.568205,1.867985
1.573040,1.876044
1.582711,1.879267
1.574652,1.895385
1.570623,1.882491
1.551282,1.866374
1.576264,1.876044
1.573040,1.886520
1.580293,1.863150
1.579487,1.835751
1.579487,1.867985
1.560147,1.888132
1.566593,1.868791
1.593993,1.873626
1.598022,1.894579
1.598022,1.888938
1.577875,1.869597
1.574652,1.880073
1.585934,1.893773
1.573040,1.877656
1.582711,1.895385
1.598022,1.886520
1.574652,1.863150
1.574652,1.888938
1.589157,1.903443
1.587546,1.882491
1.610916,1.922784
1.589157,1.882491
1.580293,1.887326
1.576264,1.868791
1.582711,1.880073
1.606887,1.890549
1.593187,1.896996
1.598022,1.858315
1.580293,1.876044
1.602857,1.884103
1.581099,1.884103
1.585128,1.895385
1.610110,1.898608
1.585128,1.918755
1.580293,1.874432
1.587546,1.894579
1.584322,1.903443
1.593993,1.869597
1.598022,1.872820
1.582711,1.863150
1.581099,1.872820
1.598828,1.877656
1.610110,1.879267
1.603663,1.855897
1.598022,1.907472
1.583516,1.909890
1.560952,1.887326
1.600440,1.905055
1.584322,1.883297
1.573846,1.884103
1.585128,1.894579
1.595604,1.879267
1.560147,1.879267
1.592381,1.855092
1.582711,1.907472
1.593187,1.863150
1.593187,1.904249
1.576264,1.894579
1.577875,1.870403
1.574652,1.868791
1.562564,1.882491
1.577875,1.885714
1.585128,1.867985
1.573846,1.868791
1.583516,1.890549
1.589963,1.880073
1.585934,1.885714
1.585128,1.903443
1.593993,1.895385
1.583516,1.885714
1.573040,1.868791
1.585128,1.893773
1.573846,1.894579
1.601245,1.893773
1.564982,1.894579
1.559341,1.859121
1.582711,1.884103
1.567399,1.874432
1.579487,1.876850
1.586740,1.804322
1.589963,1.855092
1.560147,1.890549
1.589963,1.880073
1.574652,1.880073
1.593187,1.864762
1.597216,1.896191
1.574652,1.894579
1.564982,1.880073
1.581099,1.865568
1.585128,1.853480
1.593187,1.876044
1.585128,1.890549
1.581099,1.884908
1.573040,1.867180
1.581905,1.884908
1.573040,1.884103
1.585128,1.868791
1.569817,1.893773
1.564982,1.878461
1.569011,1.894579
1.579487,1.899414
1.585128,1.893773
1.579487,1.889744
1.580293,1.879267
1.585128,1.880073
1.576264,1.884103
1.580293,1.884103
1.581099,1.868791
1.580293,1.886520
1.591575,1.876044
1.573040,1.845421
1.574652,1.894579
1.563370,1.894579
1.566593,1.878461
1.585128,1.896996
1.585128,1.880879
1.569817,1.871209
1.547253,1.855092
1.561758,1.886520
1.577875,1.896191
1.571429,1.902637
1.573040,1.889744
1.555311,1.869597
1.559341,1.893773
1.564176,1.867985
1.577070,1.896996
1.573040,1.895385
1.561758,1.894579
1.549670,1.876044
1.576264,1.885714
1.574652,1.894579
1.577875,1.893773
1.574652,1.882491
1.555311,1.867985
1.548864,1.884103
1.573846,1.894579
1.557729,1.892161
1.548864,1.884103
1.562564,1.885714
1.547253,1.892161
1.550476,1.888938
1.563370,1.888938
1.559341,1.867985
1.546447,1.890549
1.548059,1.868791
1.556923,1.882491
1.541612,1.850256
1.544029,1.889744
1.553700,1.884908
1.560952,1.876044
1.569011,1.872820
1.551282,1.890549
1.546447,1.851868
1.556923,1.887326
1.557729,1.880073
1.550476,1.881685
1.547253,1.860733
1.551282,1.868791
1.554505,1.867985
1.553700,1.874432
1.559341,1.861538
1.545641,1.881685
1.556923,1.881685
1.546447,1.873626
1.559341,1.873626
1.547253,1.859927
1.536777,1.870403
1.560952,1.867985
1.556923,1.859121
1.545641,1.864762
1.544835,1.860733
1.551282,1.831722
1.558535,1.853480
1.547253,1.872820
1.547253,1.865568
1.531941,1.868791
1.531136,1.880073
1.539194,1.882491
1.535971,1.856703
1.556117,1.861538
1.550476,1.845421
1.527912,1.804322
1.507766,1.843004
1.546447,1.889744
1.534359,1.890549
1.548059,1.896191
1.534359,1.878461
1.523077,1.869597
1.542418,1.858315
1.531136,1.860733
1.537582,1.883297
1.546447,1.850256
1.537582,1.853480
1.517436,1.868791
1.548864,1.868791
1.535971,1.821245
1.515824,1.879267
1.533553,1.876044
1.530330,1.845421
1.507766,1.857509
1.540806,1.889744
1.512601,1.859927
1.524689,1.869597
1.539194,1.847033
1.511795,1.863956
1.524689,1.862344
1.544029,1.851062
1.534359,1.872015
1.537582,1.880073
1.533553,1.857509
1.519048,1.843004
1.510183,1.839780
1.505348,1.879267
1.521465,1.881685
1.530330,1.851868
1.523883,1.851868
1.510183,1.864762
1.523077,1.850256
1.532747,1.847839
1.531941,1.876850
1.520659,1.880073
1.537582,1.868791
1.519048,1.868791
1.523077,1.855092
1.525494,1.868791
1.541612,1.865568
1.535971,1.858315
1.526300,1.847839
1.506154,1.847033
1.533553,1.876850
1.510183,1.867180
1.523077,1.882491
1.546447,1.893773
1.518242,1.853480
1.521465,1.867180
1.531136,1.817216
1.552088,1.855897
1.546447,1.866374
1.552894,1.888938
1.535971,1.838169
1.544029,1.880073
1.548864,1.863150
1.560147,1.868791
1.548864,1.879267
1.564176,1.863150
1.561758,1.843004
1.544029,1.863150
1.568205,1.886520
1.561758,1.876850
1.560952,1.863150
1.571429,1.895385
1.568205,1.874432
1.551282,1.877656
1.559341,1.863956
1.556923,1.876044
1.577875,1.882491
1.567399,1.887326
1.554505,1.889744
1.563370,1.882491
1.577875,1.888132
1.577070,1.911502
1.571429,1.911502
1.574652,1.905055
1.560147,1.884103
1.564176,1.880879
1.582711,1.882491
1.585128,1.911502
1.567399,1.916337
1.567399,1.864762
1.572234,1.873626
1.559341,1.888938
1.599634,1.916337
1.592381,1.867985
1.579487,1.892161
1.558535,1.893773
1.568205,1.895385
1.560147,1.883297
1.583516,1.885714
1.577875,1.894579
1.597216,1.905861
1.579487,1.887326
1.574652,1.892161
1.580293,1.877656
1.602051,1.888938
1.587546,1.880879
1.595604,1.895385
1.585128,1.868791
1.561758,1.894579
1.571429,1.880879
1.567399,1.891355
1.561758,1.889744
1.585128,1.890549
1.559341,1.872015
1.567399,1.851868
1.569817,1.907472
1.559341,1.896996
1.571429,1.880073
1.566593,1.860733
1.580293,1.880879
1.563370,1.857509
1.561758,1.888132
1.582711,1.894579
1.579487,1.879267
1.570623,1.881685
1.549670,1.889744
1.555311,1.868791
1.560147,1.919560
1.560147,1.883297
1.555311,1.931648
1.568205,1.868791
1.573040,1.898608
1.561758,1.868791
1.566593,1.880879
1.568205,1.900220
1.556923,1.907472
1.560147,1.889744
1.560147,1.870403
1.536777,1.887326
1.556923,1.855897
1.548864,1.885714
1.566593,1.887326
1.564982,1.857509
1.554505,1.824469
1.553700,1.900220
1.550476,1.859927
1.555311,1.868791
1.569817,1.858315
1.559341,1.874432
1.560147,1.870403
1.546447,1.873626
1.558535,1.874432
1.560952,1.886520
1.573846,1.840586
1.579487,1.864762
1.564176,1.868791
1.561758,1.884103
1.559341,1.834945
1.550476,1.856703
1.559341,1.876044
1.560147,1.868791
1.533553,1.883297
1.560147,1.880879
1.546447,1.902637
1.568205,1.876044
1.561758,1.886520
1.546447,1.863150
1.546447,1.872820
1.557729,1.870403
1.558535,1.880879
1.556117,1.879267
1.558535,1.876850
1.556923,1.870403
1.560147,1.872015
1.568205,1.870403
1.560147,1.843004
1.559341,1.861538
1.567399,1.871209
1.558535,1.863956
1.548864,1.873626
1.567399,1.892161
1.555311,1.867180
1.568205,1.890549
1.548059,1.845421
1.552088,1.828498
1.545641,1.843809
1.559341,1.888938
1.559341,1.872820
1.564176,1.811575
1.540806,1.866374
1.544835,1.867180
1.539194,1.845421
1.547253,1.843004
1.539194,1.866374
1.564982,1.868791
1.548864,1.867180
1.539194,1.864762
1.554505,1.858315
1.546447,1.863150
1.535971,1.867180
1.553700,1.880879
1.533553,1.859927
1.545641,1.850256
1.540806,1.883297
1.548864,1.887326
1.542418,1.884103
1.533553,1.877656
1.545641,1.871209
1.535165,1.867985
1.533553,1.864762
1.533553,1.840586
1.532747,1.871209
1.541612,1.874432
1.529524,1.873626
1.528718,1.863150
1.535971,1.865568
1.515824,1.851868
1.554505,1.868791
1.524689,1.850256
1.534359,1.861538
1.519048,1.868791
1.535971,1.841392
1.522271,1.868791
1.507766,1.822857
1.530330,1.890549
1.519048,1.860733
1.516630,1.851062
1.512601,1.853480
1.508571,1.851062
1.519853,1.844615
1.518242,1.855897
1.497289,1.850256
1.507766,1.856703
1.503736,1.877656
1.502930,1.855092
1.526300,1.851062
1.505348,1.843004
1.506960,1.826081
1.507766,1.827692
1.513407,1.832528
1.515018,1.848645
1.530330,1.854286
1.502125,1.850256
1.494872,1.839780
1.497289,1.852674
1.522271,1.840586
1.513407,1.851868
1.523077,1.844615
1.500513,1.801905
1.494066,1.843004
1.497289,1.845421
1.494872,1.853480
1.510183,1.843004
1.519853,1.845421
1.481172,1.851868
1.467473,1.850256
1.500513,1.835751
1.508571,1.843809
1.507766,1.818022
1.507766,1.849451
1.489231,1.840586
1.493260,1.839780
1.497289,1.822857
1.495678,1.829304
1.481978,1.840586
1.498901,1.850256
1.481172,1.848645
1.492454,1.813187
1.494872,1.837363
1.489231,1.853480
1.507766,1.830916
1.506154,1.826081
1.479560,1.837363
1.492454,1.835751
1.489231,1.831722
1.487619,1.863956
1.496484,1.850256
1.494066,1.811575
1.493260,1.830916
1.475531,1.831722
1.494066,1.826081
1.494066,1.806740
1.484396,1.859121
1.485201,1.834139
1.495678,1.802711
1.492454,1.832528
1.495678,1.837363
1.480366,1.819634
1.496484,1.834139
1.481978,1.830110
1.481978,1.806740
1.481978,1.834139
1.494872,1.840586
1.486007,1.847839
1.494066,1.855897
1.456996,1.840586
1.458608,1.824469
1.479560,1.841392
1.486007,1.828498
1.481978,1.837363
1.481978,1.830916
1.492454,1.816410
1.471502,1.832528
1.481978,1.822857
1.476337,1.834139
1.481978,1.822857
1.482784,1.835751
1.469890,1.817216
1.456996,1.822857
1.482784,1.838974
1.481978,1.843004
1.492454,1.860733
1.494872,1.817216
1.481978,1.834945
1.471502,1.824469
1.474725,1.835751
1.481172,1.856703
1.494066,1.843004
1.482784,1.854286
1.482784,1.829304
1.486007,1.818828
1.490037,1.847033
1.493260,1.812381
1.481978,1.854286
1.498095,1.847839
1.481978,1.843809
1.481978,1.843004
1.502125,1.837363
1.481978,1.843004
1.490037,1.855092
1.507766,1.837363
1.481978,1.817216
1.495678,1.857509
1.507766,1.855897
1.509377,1.855897
1.523077,1.868791
1.510183,1.855897
1.494872,1.839780
1.502125,1.847033
1.484396,1.858315
1.507766,1.834945
1.507766,1.852674
1.507766,1.852674
1.481978,1.847033
1.490037,1.856703
1.490842,1.857509
1.507766,1.859927
1.506154,1.860733
1.483590,1.861538
1.494872,1.828498
1.495678,1.877656
1.507766,1.856703
1.498901,1.876850
1.521465,1.847033
1.507766,1.848645
1.492454,1.857509
1.494872,1.867180
1.502125,1.876850
1.500513,1.872820
1.519853,1.852674
1.512601,1.864762
1.490842,1.855897
1.509377,1.857509
1.516630,1.870403
1.502930,1.863956
1.506154,1.856703
1.504542,1.847033
1.515824,1.857509
1.507766,1.843004
1.507766,1.868791
1.486007,1.882491
1.498901,1.855092
1.500513,1.853480
1.489231,1.873626
1.510989,1.864762
1.502125,1.853480
1.507766,1.848645
1.490842,1.866374
1.498901,1.858315
1.482784,1.853480
1.490842,1.845421
1.506960,1.816410
1.522271,1.855897
1.490037,1.867180
1.510183,1.842198
1.481978,1.868791
1.517436,1.847033
1.511795,1.867985
1.507766,1.872015
1.498095,1.860733
1.511795,1.855897
1.515018,1.859927
1.494066,1.880879
1.506154,1.855092
1.523883,1.855897
1.498095,1.867985
1.494872,1.855897
1.494872,1.865568
1.510989,1.842198
1.531136,1.880073
1.513407,1.858315
1.502930,1.863956
1.498095,1.859927
1.508571,1.867985
1.511795,1.869597
1.502125,1.867985
1.537582,1.876044
1.505348,1.859927
1.495678,1.868791
1.510989,1.882491
1.510183,1.869597
1.510183,1.850256
1.511795,1.872820
1.519853,1.843809
1.505348,1.867985
1.502930,1.876850
1.519853,1.861538
1.526300,1.881685
1.513407,1.859927
1.507766,1.851062
1.523077,1.866374
1.507766,1.860733
1.521465,1.863150
1.519048,1.884908
1.515824,1.866374
1.493260,1.855897
1.506960,1.867985
1.516630,1.868791
1.516630,1.866374
1.526300,1.864762
1.515824,1.854286
1.495678,1.863150
1.503736,1.855092
1.498901,1.872820
1.503736,1.862344
1.521465,1.871209
1.499707,1.848645
1.505348,1.851868
1.507766,1.847033
1.512601,1.871209
1.523077,1.843004
1.516630,1.869597
1.494066,1.852674
1.506154,1.853480
1.516630,1.868791
1.507766,1.859121
1.515824,1.848645
1.510183,1.859927
1.495678,1.843004
1.496484,1.850256
1.529524,1.855897
1.509377,1.830110
1.519853,1.863150
1.507766,1.863956
1.498901,1.842198
1.495678,1.856703
1.505348,1.855897
1.498901,1.854286
1.498901,1.867985
1.516630,1.872015
1.502125,1.837363
1.493260,1.838974
1.507766,1.856703
1.506960,1.872820
1.490842,1.855897
1.525494,1.856703
1.511795,1.833333
1.506960,1.861538
1.503736,1.859927
1.505348,1.830916
1.515018,1.863150
1.505348,1.852674
1.486007,1.838169
1.507766,1.844615
1.502930,1.851062
1.502930,1.856703
1.487619,1.855092
1.497289,1.870403
1.494872,1.840586
1.502125,1.854286
1.507766,1.855092
1.512601,1.863150
1.526300,1.871209
1.481172,1.847033
1.490842,1.856703
1.499707,1.860733
1.502930,1.843004
1.515018,1.868791
1.493260,1.858315
1.485201,1.844615
1.481978,1.850256
1.484396,1.855092
1.493260,1.821245
1.494872,1.843004
1.506960,1.856703
1.490037,1.863150
1.481978,1.845421
1.507766,1.868791
1.477949,1.851062
1.482784,1.843004
1.494872,1.844615
1.502930,1.834139
1.489231,1.838169
1.490037,1.843004
1.490842,1.834139
1.503736,1.847033
1.502930,1.850256
1.499707,1.853480
1.473919,1.852674
1.489231,1.843004
1.484396,1.842198
1.484396,1.856703
1.489231,1.851062
1.481172,1.831722
1.498901,1.826081
1.490037,1.867985
1.511795,1.855897
1.495678,1.868791
1.486007,1.853480
1.494872,1.835751
1.494872,1.846227
1.501319,1.839780
1.483590,1.845421
1.504542,1.870403
1.484396,1.855897
1.481978,1.833333
1.481978,1.843004
1.486813,1.847839
1.483590,1.834139
1.510183,1.864762
1.483590,1.832528
1.490037,1.842198
1.481172,1.857509
1.490037,1.859927
1.481172,1.859121
1.519048,1.845421
1.469890,1.853480
1.481978,1.843004
1.489231,1.855092
1.489231,1.856703
1.494066,1.871209
1.481978,1.815604
1.474725,1.853480
1.481978,1.825275
1.486007,1.841392
1.481172,1.845421
1.497289,1.847839
1.490842,1.863150
1.471502,1.838974
1.481172,1.825275
1.484396,1.843809
1.494872,1.828498
1.484396,1.844615
1.493260,1.859927
1.479560,1.838169
1.481172,1.860733
1.477143,1.845421
1.489231,1.828498
1.485201,1.858315
1.490842,1.847033
1.488425,1.845421
1.483590,1.827692
1.486813,1.851868
1.493260,1.846227
1.484396,1.868791
1.483590,1.832528
1.481978,1.827692
1.471502,1.848645
1.491648,1.829304
1.481978,1.850256
1.509377,1.840586
1.479560,1.843004
1.481978,1.830916
1.498901,1.859121
1.490037,1.843004
1.481978,1.843809
1.504542,1.868791
1.498901,1.857509
1.473114,1.848645
1.502930,1.865568
1.503736,1.855897
1.510183,1.857509
1.505348,1.870403
1.496484,1.838169
1.494066,1.851062
1.494066,1.855092
1.494872,1.855092
1.486813,1.872820
1.524689,1.868791
1.497289,1.851868
1.505348,1.844615
1.520659,1.866374
1.519048,1.876044
1.509377,1.868791
1.524689,1.879267
1.499707,1.845421
1.500513,1.850256
1.514212,1.864762
1.529524,1.852674
1.509377,1.865568
1.529524,1.867985
1.507766,1.852674
1.508571,1.847033
1.507766,1.866374
1.522271,1.863150
1.511795,1.854286
1.545641,1.855092
1.526300,1.874432
1.522271,1.876850
1.533553,1.882491
1.535971,1.888938
1.524689,1.907472
1.540806,1.889744
1.512601,1.866374
1.539194,1.886520
1.534359,1.888938
1.542418,1.868791
1.529524,1.871209
1.513407,1.858315
1.515824,1.859121
1.534359,1.877656
1.532747,1.870403
1.531136,1.889744
1.523077,1.871209
1.532747,1.856703
1.507766,1.854286
1.507766,1.896996
1.546447,1.859121
1.533553,1.885714
1.533553,1.880073
1.535971,1.872820
1.518242,1.867985
1.518242,1.859927
1.523883,1.871209
1.523883,1.868791
1.547253,1.873626
1.523883,1.850256
1.497289,1.877656
1.522271,1.858315
1.531941,1.877656
1.522271,1.892967
1.533553,1.850256
1.509377,1.846227
1.518242,1.872820
1.511795,1.888938
1.519048,1.887326
1.519048,1.866374
1.526300,1.855897
1.490842,1.868791
1.516630,1.880073
1.519048,1.848645
1.527912,1.873626
1.510183,1.878461
1.533553,1.872820
1.517436,1.875238
1.506960,1.868791
1.519853,1.867985
1.509377,1.867985
1.518242,1.872015
1.505348,1.876044
1.499707,1.868791
1.510183,1.867985
1.511795,1.868791
1.510183,1.866374
1.532747,1.885714
1.507766,1.868791
1.511795,1.867985
1.497289,1.881685
1.523883,1.871209
1.502930,1.868791
1.516630,1.871209
1.516630,1.867985
1.507766,1.855092
1.516630,1.882491
1.531136,1.885714
1.503736,1.856703
1.530330,1.873626
1.531136,1.882491
1.505348,1.880073
1.515018,1.874432
1.507766,1.883297
1.516630,1.890549
1.529524,1.879267
1.507766,1.884908
1.494872,1.876850
1.507766,1.890549
1.521465,1.892161
1.510183,1.894579
1.519853,1.880879
1.501319,1.880073
1.524689,1.885714
1.519853,1.881685
1.511795,1.887326
1.499707,1.894579
1.523077,1.880073
1.497289,1.901832
1.500513,1.859927
1.507766,1.899414
1.510989,1.874432
1.483590,1.902637
1.521465,1.901832
1.497289,1.864762
1.490842,1.876044
1.503736,1.892161
1.487619,1.891355
1.496484,1.882491
1.511795,1.876044
1.494872,1.851868
1.515824,1.873626
1.497289,1.893773
1.494872,1.888938
1.511795,1.867180
1.507766,1.884103
1.496484,1.868791
1.494872,1.879267
1.494872,1.893773
1.507766,1.883297
1.515018,1.882491
1.485201,1.872820
1.496484,1.884908
1.494066,1.876044
1.489231,1.892967
1.507766,1.880879
1.498901,1.895385
1.490842,1.884103
1.494066,1.873626
1.509377,1.855092
1.505348,1.882491
1.506154,1.894579
1.500513,1.903443
1.505348,1.869597
1.477143,1.870403
1.505348,1.879267
1.481978,1.847033
1.481978,1.880073
1.511795,1.876850
1.487619,1.893773
1.454579,1.868791
1.483590,1.874432
1.482784,1.870403
1.496484,1.882491
1.493260,1.876850
1.492454,1.869597
1.469890,1.860733
1.477949,1.894579
1.486813,1.884103
1.474725,1.873626
1.481172,1.876850
1.490842,1.872820
1.496484,1.876044
1.481978,1.888938
1.465055,1.880073
1.477949,1.893773
1.494066,1.871209
1.481978,1.883297
1.481172,1.879267
1.502930,1.892161
1.477949,1.882491
1.476337,1.895385
1.477143,1.859927
1.485201,1.877656
1.473919,1.871209
1.492454,1.882491
1.473114,1.872820
1.502930,1.876044
1.481978,1.868791
1.495678,1.873626
1.481978,1.880073
1.469890,1.866374
1.483590,1.868791
1.481978,1.898608
1.480366,1.857509
1.469890,1.884103
1.471502,1.875238
1.457802,1.876044
1.456190,1.855897
1.481978,1.869597
1.451355,1.859927
1.447326,1.863150
1.458608,1.861538
1.478755,1.858315
1.452967,1.851062
1.494872,1.879267
1.456190,1.864762
1.459414,1.858315
1.476337,1.864762
1.482784,1.828498
1.481978,1.863956
1.467473,1.835751
1.456190,1.855092
1.469890,1.860733
1.459414,1.847033
1.456190,1.837363
1.467473,1.874432
1.476337,1.847839
1.471502,1.847839
1.468278,1.843004
1.452967,1.838974
1.458608,1.843004
1.479560,1.863956
1.474725,1.852674
1.453773,1.847033
1.460220,1.863150
1.459414,1.851062
1.467473,1.847839
1.477949,1.841392
1.471502,1.844615
1.456190,1.842198
1.452161,1.851062
1.469084,1.866374
1.457802,1.847033
1.461026,1.844615
1.465055,1.842198
1.439267,1.843004
1.456996,1.853480
1.463443,1.856703
1.469084,1.863956
1.477143,1.863150
1.461026,1.848645
1.453773,1.851062
1.463443,1.843809
1.464249,1.850256
1.477143,1.851062
1.463443,1.859927
1.472308,1.837363
1.456190,1.843004
1.456190,1.869597
1.468278,1.861538
1.481978,1.851868
1.481172,1.855092
1.478755,1.867985
1.455385,1.843004
1.494872,1.855092
1.473114,1.847033
1.494066,1.850256
1.494066,1.853480
1.486007,1.879267
1.468278,1.869597
1.502930,1.868791
1.477143,1.866374
1.496484,1.841392
1.505348,1.876044
1.503736,1.831722
1.483590,1.861538
1.496484,1.870403
1.486007,1.867985
1.506960,1.869597
1.508571,1.854286
1.506154,1.838974
1.507766,1.872820
1.495678,1.881685
1.506960,1.874432
1.506154,1.892161
1.494066,1.865568
1.494872,1.872820
1.505348,1.882491
1.498901,1.876044
1.516630,1.872015
1.505348,1.886520
1.506154,1.879267
1.494872,1.863956
1.518242,1.870403
1.533553,1.882491
1.495678,1.869597
1.528718,1.870403
1.523077,1.891355
1.494872,1.866374
1.520659,1.869597
1.504542,1.882491
1.506960,1.882491
1.524689,1.905861
1.502125,1.876850
1.509377,1.870403
1.522271,1.883297
1.523883,1.879267
1.497289,1.894579
1.538388,1.908278
1.513407,1.884103
1.518242,1.876044
1.519853,1.872820
1.533553,1.876850
1.530330,1.851868
1.541612,1.900220
1.499707,1.873626
1.507766,1.867180
1.509377,1.868791
1.512601,1.877656
1.527912,1.886520
1.513407,1.889744
1.508571,1.897802
1.505348,1.909084
1.515824,1.876044
1.513407,1.892967
1.504542,1.881685
1.519048,1.881685
1.525494,1.868791
1.523883,1.872820
1.507766,1.899414
1.508571,1.893773
1.500513,1.880073
1.515018,1.879267
1.508571,1.869597
1.494066,1.880879
1.509377,1.884103
1.509377,1.866374
1.516630,1.892161
1.506154,1.876044
1.486007,1.876850
1.490037,1.884103
1.519853,1.883297
1.506960,1.876044
1.533553,1.883297
1.505348,1.878461
1.513407,1.851062
1.490842,1.860733
1.503736,1.876044
1.508571,1.876044
1.511795,1.890549
1.515824,1.881685
1.479560,1.866374
1.506154,1.864762
1.502125,1.876850
1.507766,1.884103
1.518242,1.880879
1.482784,1.868791
1.485201,1.856703
1.515824,1.856703
1.502125,1.856703
1.510183,1.868791
1.506154,1.855897
1.495678,1.873626
1.500513,1.855897
1.494872,1.882491
1.487619,1.866374
1.489231,1.879267
1.503736,1.867180
1.502930,1.893773
1.507766,1.873626
1.481978,1.890549
1.498095,1.868791
1.492454,1.884103
1.519048,1.863956
1.486007,1.866374
1.502125,1.876850
1.502930,1.889744
1.506154,1.874432
1.511795,1.892161
1.512601,1.869597
1.498095,1.863150
1.497289,1.867985
1.495678,1.894579
1.507766,1.889744
1.516630,1.879267
1.506960,1.868791
1.510183,1.859927
1.505348,1.877656
1.502125,1.876850
1.505348,1.876850
1.507766,1.869597
1.502930,1.885714
1.506154,1.883297
1.505348,1.884103
1.494066,1.892161
1.496484,1.890549
1.507766,1.894579
1.494066,1.853480
1.477949,1.869597
1.491648,1.876044
1.502125,1.880879
1.516630,1.883297
1.507766,1.894579
1.494872,1.878461
1.482784,1.876044
1.490842,1.894579
1.490842,1.868791
1.509377,1.871209
1.481978,1.871209
1.498901,1.885714
1.477143,1.860733
1.515018,1.876850
1.490842,1.869597
1.484396,1.868791
1.500513,1.868791
1.496484,1.868791
1.473919,1.868791
1.482784,1.874432
1.492454,1.867985
1.489231,1.825275
1.486813,1.845421
1.481978,1.850256
1.489231,1.868791
1.482784,1.868791
1.498095,1.885714
1.495678,1.880879
1.500513,1.879267
1.477949,1.863956
1.490037,1.861538
1.476337,1.856703
1.481978,1.863956
1.490037,1.894579
1.493260,1.843004
1.481978,1.832528
1.480366,1.885714
1.496484,1.880879
1.492454,1.867180
1.498901,1.867985
1.489231,1.847839
1.476337,1.882491
1.464249,1.869597
1.484396,1.870403
1.471502,1.880073
1.490842,1.870403
1.477143,1.868791
1.460220,1.847033
1.477949,1.865568
1.477949,1.867985
1.493260,1.843004
1.489231,1.867985
1.481978,1.843004
1.474725,1.863150
1.483590,1.867180
1.484396,1.856703
1.486813,1.854286
1.481978,1.866374
1.481172,1.868791
1.457802,1.859927
1.494872,1.863150
1.481978,1.855092
1.502930,1.861538
1.482784,1.868791
1.481172,1.873626
1.474725,1.859927
1.469084,1.848645
1.494066,1.882491
1.474725,1.879267
1.482784,1.855897
1.470696,1.882491
1.477143,1.869597
1.494872,1.892161
1.493260,1.872820
1.480366,1.869597
1.486813,1.880879
1.484396,1.848645
1.463443,1.868791
1.478755,1.869597
1.464249,1.863150
1.472308,1.880879
1.479560,1.855897
1.466667,1.874432
1.461831,1.839780
1.470696,1.880073
1.489231,1.855897
1.490842,1.890549
1.481172,1.848645
1.472308,1.855092
1.477949,1.883297
1.481978,1.864762
1.469890,1.880073
1.466667,1.882491
1.467473,1.869597
1.460220,1.856703
1.473114,1.861538
1.477949,1.883297
1.472308,1.863150
1.489231,1.881685
1.464249,1.867180
1.481172,1.857509
1.473114,1.860733
1.477949,1.888938
1.481978,1.866374
1.507766,1.879267
1.483590,1.861538
1.473114,1.869597
1.481978,1.873626
1.481172,1.877656
1.486813,1.884103
1.480366,1.876850
1.468278,1.856703
1.481172,1.869597
1.479560,1.848645
1.489231,1.863150
1.481978,1.878461
1.481978,1.872820
1.479560,1.873626
1.490842,1.873626
1.490842,1.847839
1.486813,1.870403
1.481978,1.890549
1.484396,1.872820
1.493260,1.872820
1.466667,1.861538
1.500513,1.877656
1.502125,1.888938
1.495678,1.878461
1.496484,1.876044
1.478755,1.868791
1.498901,1.872820
1.524689,1.879267
1.516630,1.881685
1.508571,1.898608
1.512601,1.870403
1.504542,1.892161
1.520659,1.892161
1.519853,1.888938
1.502930,1.895385
1.521465,1.894579
1.498095,1.870403
1.527912,1.863956
1.508571,1.885714
1.522271,1.894579
1.519048,1.879267
1.528718,1.887326
1.515824,1.871209
1.503736,1.874432
1.524689,1.880073
1.522271,1.894579
1.535165,1.855092
1.546447,1.894579
1.535165,1.884103
1.524689,1.869597
1.548059,1.891355
1.529524,1.900220
1.541612,1.894579
1.566593,1.907472
1.539194,1.887326
1.521465,1.896191
1.535971,1.893773
1.544835,1.918755
1.546447,1.908278
1.544835,1.892967
1.533553,1.879267
1.537582,1.910696
1.550476,1.894579
1.533553,1.917143
1.540000,1.892967
1.540000,1.874432
1.558535,1.894579
1.541612,1.892967
1.549670,1.905055
1.547253,1.899414
1.546447,1.906667
1.547253,1.889744
1.526300,1.893773
1.530330,1.890549
1.540806,1.887326
1.532747,1.896191
1.548059,1.894579
1.539194,1.892967
1.528718,1.879267
1.544029,1.902637
1.534359,1.892967
1.544835,1.894579
1.548864,1.900220
1.522271,1.894579
1.516630,1.893773
1.526300,1.899414
1.519048,1.905055
1.528718,1.894579
1.529524,1.903443
1.508571,1.888938
1.510183,1.891355
1.510183,1.894579
1.523077,1.898608
1.511795,1.885714
1.523077,1.884103
1.531941,1.864762
1.533553,1.884908
1.516630,1.888938
1.519853,1.880879
1.544835,1.888938
1.517436,1.885714
1.523077,1.896191
1.507766,1.876850
1.545641,1.895385
1.519853,1.900220
1.519853,1.880879
1.524689,1.869597
1.494872,1.880073
1.527106,1.886520
1.540806,1.907472
1.511795,1.901832
1.534359,1.870403
1.531941,1.892967
1.519048,1.890549
1.514212,1.890549
1.529524,1.909084
1.528718,1.898608
1.531941,1.892161
1.520659,1.869597
1.519048,1.876044
1.533553,1.892161
1.520659,1.894579
1.533553,1.896996
1.526300,1.888938
1.520659,1.904249
1.531136,1.892161
1.509377,1.904249
1.523077,1.888938
1.513407,1.889744
1.519048,1.898608
1.519853,1.903443
1.522271,1.876850
1.519048,1.901832
1.533553,1.888938
1.523077,1.871209
1.527912,1.907472
1.507766,1.880879
1.513407,1.894579
1.537582,1.860733
1.530330,1.899414
1.523077,1.888938
1.525494,1.872820
1.528718,1.894579
1.502125,1.895385
1.513407,1.885714
1.533553,1.896191
1.508571,1.894579
1.533553,1.880073
1.519853,1.895385
1.515824,1.885714
1.507766,1.892967
1.519853,1.892161
1.516630,1.917949
1.519048,1.899414
1.519048,1.895385
1.519048,1.889744
1.523077,1.872015
1.535165,1.894579
1.525494,1.889744
1.531136,1.889744
1.533553,1.890549
1.519048,1.869597
1.508571,1.892161
1.524689,1.895385
1.529524,1.903443
1.532747,1.892161
1.523077,1.892161
1.508571,1.894579
1.511795,1.883297
1.534359,1.905861
1.540806,1.900220
1.511795,1.885714
1.507766,1.885714
1.519853,1.915531
1.525494,1.872820
1.533553,1.884103
1.535165,1.908278
1.526300,1.881685
1.511795,1.871209
1.522271,1.893773
1.521465,1.898608
1.538388,1.890549
1.523883,1.896996
1.510989,1.868791
1.512601,1.893773
1.515824,1.892967
1.507766,1.892161
1.517436,1.894579
1.522271,1.872820
1.498901,1.913114
1.490037,1.880879
1.511795,1.905861
1.506154,1.886520
1.508571,1.901832
1.511795,1.893773
1.503736,1.893773
1.490842,1.885714
1.510989,1.907472
1.506960,1.891355
1.519853,1.886520
1.531136,1.899414
1.516630,1.894579
1.502930,1.867180
1.508571,1.889744
1.515824,1.892161
1.524689,1.892161
1.503736,1.896996
1.506154,1.894579
1.499707,1.880879
1.507766,1.896191
1.507766,1.873626
1.519853,1.916337
1.509377,1.896191
1.515824,1.889744
1.498095,1.887326
1.509377,1.902637
1.507766,1.890549
1.507766,1.889744
1.507766,1.885714
1.502930,1.876044
1.502125,1.883297
1.507766,1.888938
1.513407,1.881685
1.506960,1.893773
1.512601,1.876044
1.495678,1.866374
1.498901,1.887326
1.507766,1.884103
1.516630,1.882491
1.518242,1.892967
1.493260,1.896996
1.485201,1.884908
1.498901,1.886520
1.495678,1.905055
1.517436,1.894579
1.527912,1.903443
1.503736,1.888938
1.482784,1.870403
1.506960,1.876850
1.499707,1.882491
1.515018,1.882491
1.521465,1.901026
1.477143,1.894579
1.473919,1.901832
1.494066,1.868791
1.494066,1.885714
1.494872,1.867180
1.510183,1.885714
1.483590,1.880073
1.484396,1.894579
1.490037,1.892161
1.490842,1.883297
1.511795,1.894579
1.503736,1.867180
1.492454,1.871209
1.506960,1.892161
1.510183,1.882491
1.497289,1.900220
1.481172,1.901832
1.506960,1.894579
1.486007,1.874432
1.499707,1.880879
1.511795,1.883297
1.495678,1.882491
1.486813,1.889744
1.487619,1.880073
1.481978,1.873626
1.483590,1.881685
1.502930,1.892967
1.476337,1.885714
1.509377,1.894579
1.481172,1.872015
1.477143,1.877656
1.490037,1.894579
1.483590,1.900220
1.500513,1.895385
1.502125,1.880879
1.494872,1.903443
1.498095,1.885714
1.507766,1.896996
1.493260,1.873626
1.515824,1.898608
1.507766,1.893773
1.512601,1.894579
1.507766,1.890549
1.503736,1.891355
1.522271,1.898608
1.510989,1.911502
1.523883,1.884908
1.502930,1.901832
1.516630,1.900220
1.540806,1.899414
1.533553,1.900220
1.532747,1.917949
1.526300,1.914725
1.515824,1.885714
1.516630,1.892967
1.553700,1.910696
1.546447,1.914725
1.550476,1.914725
1.551282,1.927619
1.532747,1.894579
1.546447,1.905861
1.533553,1.940513
1.544835,1.914725
1.560147,1.920366
1.557729,1.929231
1.537582,1.912308
1.546447,1.894579
1.535971,1.913114
1.545641,1.919560
1.544029,1.943736
1.538388,1.920366
1.549670,1.920366
1.554505,1.921172
1.560952,1.942124
1.548864,1.921172
1.559341,1.921172
1.570623,1.916337
1.568205,1.918755
1.570623,1.905861
1.560147,1.916337
1.569011,1.926007
1.559341,1.939707
1.570623,1.924396
1.548864,1.908278
1.561758,1.938095
1.559341,1.945348
1.553700,1.909890
1.559341,1.934066
1.556923,1.908278
1.546447,1.915531
1.544029,1.933260
1.558535,1.937289
1.552088,1.935678
1.573040,1.922784
1.555311,1.946154
1.546447,1.934066
1.554505,1.920366
1.546447,1.920366
1.548864,1.908278
1.552088,1.941319
1.524689,1.909084
1.528718,1.914725
1.525494,1.914725
1.545641,1.926007
1.544029,1.920366
1.544029,1.908278
1.537582,1.907472
1.538388,1.918755
1.544029,1.925201
1.538388,1.922784
1.535165,1.914725
1.548059,1.901026
1.520659,1.909890
1.515824,1.915531
1.537582,1.920366
1.533553,1.930843
1.542418,1.934066
1.544029,1.909890
1.524689,1.905861
1.531136,1.887326
1.519853,1.906667
1.533553,1.911502
1.533553,1.916337
1.542418,1.914725
1.519048,1.902637
1.520659,1.905055
1.511795,1.909084
1.520659,1.896996
1.535971,1.920366
1.521465,1.913114
1.507766,1.899414
1.520659,1.901832
1.527912,1.905055
1.518242,1.916337
1.533553,1.903443
1.516630,1.918755
1.523883,1.890549
1.513407,1.910696
1.522271,1.917949
1.519853,1.892161
1.548864,1.895385
1.529524,1.905055
1.502930,1.885714
1.506960,1.917949
1.527912,1.898608
1.518242,1.896996
1.533553,1.900220
1.498901,1.907472
